# Freq(Hz) SPL(dB) Phase (degrees)
10.000 -2.097 157.999
10.570 -1.134 156.745
11.180 -0.160 155.403
11.820 0.807 153.996
12.500 1.778 152.500
13.210 2.737 150.939
13.970 3.709 149.267
14.770 4.675 147.508
15.620 5.647 145.638
16.510 6.609 143.681
17.460 7.580 141.592
18.460 8.546 139.393
19.510 9.506 137.084
20.630 10.475 134.621
21.810 11.440 132.027
23.060 12.406 129.278
24.380 13.372 126.377
25.780 14.340 123.299
27.260 15.308 120.046
28.820 16.272 116.618
30.470 17.237 112.992
32.220 18.204 109.147
34.060 19.166 105.104
36.010 20.130 100.821
38.080 21.097 96.275
40.260 22.060 91.488
42.560 23.020 86.440
45.000 23.983 81.085
47.580 24.946 75.424
50.310 25.909 69.436
53.190 26.869 63.121
56.230 27.827 56.458
59.460 28.789 49.381
62.860 29.746 41.936
66.460 30.703 34.056
70.270 31.660 25.721
74.300 32.617 16.910
78.550 33.570 7.624
83.050 34.523 -2.201
87.810 35.476 -12.585
92.840 36.427 -23.550
98.160 37.378 -35.136
103.780 38.327 -47.364
109.730 39.276 -60.296
116.020 40.224 -73.952
122.660 41.170 -88.351
129.690 42.117 -103.578
137.120 43.064 -119.651
144.970 44.011 -136.610
153.280 44.961 -154.540
162.060 45.912 -173.460
171.340 46.866 166.567
181.160 47.826 145.458
191.540 48.791 123.168
202.510 49.764 99.633
214.110 50.746 74.764
226.380 51.741 48.469
239.350 52.750 20.676
253.060 53.777 -8.713
267.560 54.824 -39.825
282.890 55.895 -72.768
299.090 56.993 -107.662
316.230 58.120 -144.698
334.340 59.278 176.005
353.500 60.470 134.208
373.750 61.691 89.743
395.160 62.938 42.366
417.800 64.201 -8.179
441.730 65.463 -62.123
467.040 66.698 -119.743
493.800 67.873 178.777
522.090 68.947 113.323
552.000 69.881 43.876
583.620 70.647 -29.458
617.050 71.236 -106.517
652.400 71.667 172.833
689.780 71.976 88.647
729.290 72.215 0.893
771.080 72.439 -90.684
815.250 72.712 173.643
861.950 73.104 73.275
911.330 73.655 -32.688
963.540 74.345 -145.372
1018.740 75.064 94.484
1077.110 75.694 -33.445
1138.810 76.158 -168.929
1204.050 76.444 48.276
1273.030 76.606 -101.635
1345.960 76.756 101.157
1423.070 77.007 -64.220
1504.590 77.396 120.947
1590.790 77.870 -64.661
1681.920 78.307 97.947
1778.280 78.525 -111.558
1880.150 78.455 27.674
1987.870 78.222 155.791
2101.750 77.962 -87.525
2222.150 77.875 16.321
2349.460 77.912 104.510
2484.060 77.781 176.983
2626.360 77.491 -125.615
2776.820 77.404 -84.121
2935.900 77.527 -62.270
3104.100 77.365 -61.122
3281.930 76.974 -77.677
3469.940 77.086 -114.929
3668.730 77.223 -178.379
3878.910 76.862 93.867
4101.130 76.436 -16.707
4336.070 76.183 -154.645
4584.480 75.728 40.682
4847.120 75.984 -155.151
5124.810 75.675 -26.562
5418.400 75.008 70.516
5728.810 74.211 133.808
6057.010 73.855 163.032
6404.000 73.564 145.015
6770.880 72.724 87.252
7158.770 71.641 -11.663
7568.890 70.973 -160.963
8002.500 69.950 1.988
8460.950 68.767 111.014
8945.670 66.773 165.274
9458.160 65.322 164.697
10000.000 62.855 95.452
