# Freq(Hz) SPL(dB) Phase (degrees)
10.000 -2.394 157.261
10.570 -1.431 155.965
11.180 -0.457 154.578
11.820 0.510 153.123
12.500 1.481 151.577
13.210 2.441 149.963
13.970 3.412 148.235
14.770 4.379 146.417
15.620 5.350 144.484
16.510 6.312 142.461
17.460 7.283 140.302
18.460 8.250 138.028
19.510 9.210 135.642
20.630 10.178 133.096
21.810 11.143 130.414
23.060 12.110 127.573
24.380 13.076 124.573
25.780 14.044 121.391
27.260 15.012 118.028
28.820 15.976 114.483
30.470 16.941 110.734
32.220 17.909 106.758
34.060 18.870 102.578
36.010 19.834 98.149
38.080 20.802 93.448
40.260 21.765 88.497
42.560 22.725 83.274
45.000 23.689 77.735
47.580 24.652 71.879
50.310 25.615 65.683
53.190 26.575 59.149
56.230 27.533 52.253
59.460 28.495 44.928
62.860 29.451 37.220
66.460 30.409 29.061
70.270 31.366 20.430
74.300 32.322 11.303
78.550 33.274 1.682
83.050 34.227 -8.500
87.810 35.179 -19.265
92.840 36.128 -30.634
98.160 37.076 -42.652
103.780 38.022 -55.339
109.730 38.967 -68.762
116.020 39.910 -82.942
122.660 40.849 -97.898
129.690 41.788 -113.719
137.120 42.724 -130.426
144.970 43.657 -148.059
153.280 44.590 -166.706
162.060 45.519 173.614
171.340 46.447 152.838
181.160 47.373 130.881
191.540 48.298 107.704
202.510 49.221 83.245
214.110 50.144 57.424
226.380 51.069 30.159
239.350 51.995 1.392
253.060 52.927 -28.956
267.560 53.866 -60.988
282.890 54.818 -94.786
299.090 55.787 -130.439
316.230 56.783 -168.115
334.340 57.813 152.091
353.500 58.886 109.947
373.750 60.011 65.280
395.160 61.191 17.813
417.800 62.428 -32.761
441.730 63.709 -86.741
467.040 65.015 -144.492
493.800 66.313 153.715
522.090 67.561 87.670
552.000 68.716 17.258
583.620 69.743 -57.522
617.050 70.624 -136.626
652.400 71.359 139.954
689.780 71.957 52.145
729.290 72.426 -40.175
771.080 72.760 -137.247
815.250 72.946 120.924
861.950 72.985 14.417
911.330 72.931 -96.590
963.540 72.919 147.796
1018.740 73.068 26.731
1077.110 73.429 -101.276
1138.810 73.902 122.546
1204.050 74.342 -22.358
1273.030 74.653 -175.856
1345.960 74.842 22.332
1423.070 74.989 -147.914
1504.590 75.194 32.653
1590.790 75.466 -157.258
1681.920 75.715 1.295
1778.280 75.810 147.881
1880.150 75.668 -77.075
1987.870 75.454 47.239
2101.750 75.557 158.911
2222.150 75.780 -106.135
2349.460 75.525 -27.756
2484.060 74.878 37.030
2626.360 74.277 88.815
2776.820 74.194 123.454
2935.900 74.218 136.219
3104.100 73.667 128.000
3281.930 72.701 103.739
3469.940 72.699 62.224
3668.730 73.363 -11.027
3878.910 72.861 -112.249
4101.130 71.886 126.796
4336.070 71.640 -20.854
4584.480 70.976 161.029
4847.120 70.791 -43.779
5124.810 70.775 72.444
5418.400 69.904 153.942
5728.810 69.140 -155.554
6057.010 68.876 -146.954
6404.000 67.735 -174.663
6770.880 67.360 109.715
7158.770 66.616 -5.991
7568.890 65.264 179.341
8002.500 64.661 -30.514
8460.950 63.556 54.521
8945.670 60.453 98.453
9458.160 60.503 60.375
10000.000 57.565 -33.898
