# Freq(Hz) SPL(dB) Phase (degrees)
10.000 -2.997 155.677
10.570 -2.034 154.291
11.180 -1.059 152.808
11.820 -0.092 151.251
12.500 0.879 149.598
13.210 1.839 147.871
13.970 2.810 146.023
14.770 3.778 144.077
15.620 4.750 142.010
16.510 5.712 139.845
17.460 6.684 137.535
18.460 7.651 135.103
19.510 8.612 132.550
20.630 9.581 129.826
21.810 10.547 126.956
23.060 11.515 123.916
24.380 12.481 120.706
25.780 13.451 117.301
27.260 14.420 113.702
28.820 15.386 109.908
30.470 16.352 105.896
32.220 17.322 101.640
34.060 18.286 97.165
36.010 19.252 92.423
38.080 20.222 87.389
40.260 21.188 82.088
42.560 22.152 76.495
45.000 23.119 70.561
47.580 24.086 64.288
50.310 25.053 57.649
53.190 26.018 50.646
56.230 26.982 43.254
59.460 27.949 35.399
62.860 28.913 27.132
66.460 29.877 18.378
70.270 30.843 9.114
74.300 31.808 -0.685
78.550 32.770 -11.020
83.050 33.734 -21.962
87.810 34.698 -33.537
92.840 35.660 -45.770
98.160 36.623 -58.708
103.780 37.584 -72.376
109.730 38.545 -86.849
116.020 39.506 -102.151
122.660 40.465 -118.306
129.690 41.424 -135.414
137.120 42.381 -153.500
144.970 43.337 -172.613
153.280 44.292 167.148
162.060 45.244 145.755
171.340 46.194 123.136
181.160 47.141 99.189
191.540 48.084 73.864
202.510 49.022 47.088
214.110 49.954 18.761
226.380 50.878 -11.214
239.350 51.792 -42.907
253.060 52.694 -76.411
267.560 53.583 -111.841
282.890 54.456 -149.281
299.090 55.311 171.186
316.230 56.146 129.409
334.340 56.961 85.339
353.500 57.754 38.806
373.750 58.527 -10.265
395.160 59.280 -62.023
417.800 60.014 -116.620
441.730 60.730 -174.189
467.040 61.425 125.071
493.800 62.098 61.029
522.090 62.747 -6.429
552.000 63.377 -77.397
583.620 64.012 -151.962
617.050 64.694 129.659
652.400 65.468 47.028
689.780 66.360 -40.490
729.290 67.358 -133.579
771.080 68.419 127.048
815.250 69.477 20.965
861.950 70.460 -92.177
911.330 71.303 147.438
963.540 71.950 19.818
1018.740 72.359 -115.115
1077.110 72.484 102.905
1138.810 72.337 -45.476
1204.050 72.065 160.299
1273.030 71.926 -0.268
1345.960 72.095 -168.791
1423.070 72.597 12.409
1504.590 73.280 -178.199
1590.790 73.980 -21.684
1681.920 74.516 121.601
1778.280 74.762 -108.400
1880.150 74.673 8.953
1987.870 74.242 113.240
2101.750 73.527 -154.614
2222.150 72.736 -74.730
2349.460 72.108 -8.675
2484.060 71.706 41.947
2626.360 71.560 75.422
2776.820 71.783 90.515
2935.900 72.535 83.696
3104.100 73.432 51.037
3281.930 73.840 -8.554
3469.940 73.477 -91.812
3668.730 72.300 162.331
3878.910 71.219 34.376
4101.130 70.143 -120.155
4336.070 69.096 59.018
4584.480 68.597 -151.589
4847.120 68.494 -37.444
5124.810 68.396 38.862
5418.400 68.386 74.006
5728.810 66.023 74.166
6057.010 64.554 44.347
6404.000 64.034 -47.079
6770.880 63.201 -168.186
7158.770 61.592 19.220
7568.890 60.247 143.677
8002.500 57.773 -149.434
8460.950 48.137 -129.012
8945.670 51.033 -146.882
9458.160 53.239 132.995
10000.000 51.926 -49.006
