# Freq(Hz) SPL(dB) Phase (degrees)
10.000 -2.394 157.261
10.570 -1.431 155.965
11.180 -0.457 154.578
11.820 0.510 153.123
12.500 1.481 151.577
13.210 2.441 149.963
13.970 3.412 148.235
14.770 4.379 146.417
15.620 5.350 144.484
16.510 6.312 142.461
17.460 7.283 140.302
18.460 8.250 138.028
19.510 9.210 135.642
20.630 10.178 133.096
21.810 11.143 130.414
23.060 12.110 127.573
24.380 13.076 124.573
25.780 14.044 121.391
27.260 15.012 118.028
28.820 15.976 114.483
30.470 16.941 110.734
32.220 17.909 106.758
34.060 18.870 102.578
36.010 19.834 98.149
38.080 20.802 93.448
40.260 21.765 88.497
42.560 22.725 83.275
45.000 23.689 77.735
47.580 24.652 71.879
50.310 25.615 65.684
53.190 26.575 59.149
56.230 27.533 52.253
59.460 28.495 44.928
62.860 29.451 37.220
66.460 30.409 29.061
70.270 31.366 20.430
74.300 32.322 11.303
78.550 33.274 1.682
83.050 34.227 -8.500
87.810 35.179 -19.265
92.840 36.128 -30.634
98.160 37.076 -42.652
103.780 38.022 -55.339
109.730 38.967 -68.762
116.020 39.910 -82.941
122.660 40.849 -97.898
129.690 41.788 -113.719
137.120 42.724 -130.425
144.970 43.657 -148.059
153.280 44.590 -166.706
162.060 45.519 173.614
171.340 46.447 152.838
181.160 47.373 130.881
191.540 48.298 107.704
202.510 49.221 83.246
214.110 50.144 57.424
226.380 51.069 30.159
239.350 51.995 1.392
253.060 52.927 -28.956
267.560 53.866 -60.987
282.890 54.818 -94.785
299.090 55.787 -130.439
316.230 56.783 -168.115
334.340 57.813 152.091
353.500 58.886 109.947
373.750 60.011 65.280
395.160 61.191 17.813
417.800 62.428 -32.760
441.730 63.709 -86.741
467.040 65.015 -144.492
493.800 66.313 153.715
522.090 67.561 87.670
552.000 68.716 17.258
583.620 69.743 -57.522
617.050 70.624 -136.625
652.400 71.358 139.955
689.780 71.957 52.146
729.290 72.426 -40.174
771.080 72.760 -137.245
815.250 72.946 120.925
861.950 72.985 14.419
911.330 72.932 -96.588
963.540 72.919 147.798
1018.740 73.069 26.733
1077.110 73.429 -101.276
1138.810 73.902 122.543
1204.050 74.341 -22.363
1273.030 74.653 -175.858
1345.960 74.841 22.331
1423.070 74.989 -147.913
1504.590 75.192 32.676
1590.790 75.466 -157.251
1681.920 75.716 1.304
1778.280 75.810 147.895
1880.150 75.669 -77.097
1987.870 75.455 47.240
2101.750 75.557 158.912
2222.150 75.781 -106.134
2349.460 75.578 -27.605
2484.060 74.877 37.028
2626.360 74.275 88.825
2776.820 74.196 123.466
2935.900 74.220 136.226
3104.100 73.671 127.992
3281.930 72.701 103.716
3469.940 72.697 62.206
3668.730 73.358 -11.026
3878.910 72.859 -112.194
4101.130 71.905 126.826
4336.070 71.637 -20.863
4584.480 70.977 161.040
4847.120 70.792 -43.767
5124.810 70.787 72.430
5418.400 69.861 153.622
5728.810 69.152 -154.921
6057.010 68.877 -147.090
6404.000 67.737 -174.744
6770.880 67.407 109.503
7158.770 66.631 -5.769
7568.890 65.282 179.226
8002.500 64.626 -31.228
8460.950 63.471 54.779
8945.670 60.424 97.870
9458.160 61.322 64.034
10000.000 57.725 -36.397
