# Freq(Hz) SPL(dB) Phase (degrees)
10.000 -3.166 155.213
10.570 -2.203 153.800
11.180 -1.228 152.288
11.820 -0.261 150.702
12.500 0.711 149.017
13.210 1.671 147.257
13.970 2.642 145.373
14.770 3.610 143.391
15.620 4.582 141.284
16.510 5.545 139.078
17.460 6.517 136.723
18.460 7.484 134.245
19.510 8.445 131.642
20.630 9.415 128.867
21.810 10.381 125.942
23.060 11.350 122.844
24.380 12.317 119.572
25.780 13.287 116.102
27.260 14.257 112.434
28.820 15.224 108.567
30.470 16.191 104.478
32.220 17.161 100.140
34.060 18.126 95.580
36.010 19.094 90.746
38.080 20.065 85.616
40.260 21.033 80.212
42.560 21.998 74.511
45.000 22.967 68.463
47.580 23.936 62.068
50.310 24.906 55.301
53.190 25.874 48.162
56.230 26.840 40.627
59.460 27.812 32.620
62.860 28.779 24.192
66.460 29.748 15.267
70.270 30.718 5.821
74.300 31.688 -4.170
78.550 32.656 -14.708
83.050 33.626 -25.866
87.810 34.597 -37.671
92.840 35.568 -50.146
98.160 36.539 -63.342
103.780 37.511 -77.285
109.730 38.484 -92.050
116.020 39.457 -107.662
122.660 40.430 -124.148
129.690 41.404 -141.607
137.120 42.379 -160.067
144.970 43.354 -179.580
153.280 44.331 159.754
162.060 45.308 137.906
171.340 46.285 114.798
181.160 47.262 90.328
191.540 48.239 64.443
202.510 49.215 37.064
214.110 50.189 8.087
226.380 51.160 -22.589
239.350 52.128 -55.041
253.060 53.090 -89.370
267.560 54.045 -125.699
282.890 54.992 -164.125
299.090 55.930 155.258
316.230 56.857 112.280
334.340 57.774 66.873
353.500 58.680 18.838
373.750 59.575 -31.927
395.160 60.459 -85.613
417.800 61.331 -142.417
441.730 62.186 157.477
467.040 63.013 93.812
493.800 63.796 26.408
522.090 64.515 -44.880
552.000 65.150 -120.127
583.620 65.694 160.692
617.050 66.162 77.606
652.400 66.598 -9.462
689.780 67.057 -100.784
729.290 67.586 163.182
771.080 68.206 61.739
815.250 68.915 -45.685
861.950 69.695 -159.737
911.330 70.522 78.951
963.540 71.352 -50.280
1018.740 72.124 171.914
1077.110 72.719 24.974
1138.810 73.001 -131.083
1204.050 72.878 64.212
1273.030 72.362 -108.579
1345.960 71.492 70.798
1423.070 70.346 -117.250
1504.590 69.055 47.650
1590.790 67.912 -154.331
1681.920 67.371 -4.891
1778.280 67.723 131.236
1880.150 68.371 -110.871
1987.870 68.703 -11.876
2101.750 68.247 70.907
2222.150 66.996 139.741
2349.460 64.946 -162.437
2484.060 62.685 -109.691
2626.360 63.138 -63.764
2776.820 65.900 -53.667
2935.900 67.694 -77.394
3104.100 68.243 -127.102
3281.930 67.429 161.812
3469.940 65.708 76.945
3668.730 65.925 -25.002
3878.910 67.257 -165.671
4101.130 67.633 12.365
4336.070 65.973 164.338
4584.480 63.253 -65.899
4847.120 62.875 40.050
5124.810 62.928 88.318
5418.400 61.180 94.437
5728.810 56.080 65.885
6057.010 56.267 25.897
6404.000 55.051 -119.108
6770.880 51.613 33.020
7158.770 49.117 -130.245
7568.890 51.761 -72.196
8002.500 55.624 -48.199
8460.950 54.162 -65.216
8945.670 60.538 -113.308
9458.160 52.241 127.173
10000.000 55.213 -98.877
