# Freq(Hz) SPL(dB) Phase (degrees)
10.000 -2.942 155.827
10.570 -1.979 154.449
11.180 -1.004 152.975
11.820 -0.037 151.428
12.500 0.934 149.784
13.210 1.894 148.068
13.970 2.865 146.231
14.770 3.832 144.298
15.620 4.804 142.243
16.510 5.767 140.092
17.460 6.738 137.796
18.460 7.705 135.379
19.510 8.666 132.841
20.630 9.635 130.134
21.810 10.601 127.282
23.060 11.569 124.261
24.380 12.535 121.070
25.780 13.504 117.687
27.260 14.473 114.110
28.820 15.439 110.339
30.470 16.405 106.351
32.220 17.374 102.122
34.060 18.338 97.675
36.010 19.304 92.962
38.080 20.273 87.960
40.260 21.239 82.691
42.560 22.202 77.133
45.000 23.169 71.236
47.580 24.135 65.002
50.310 25.102 58.405
53.190 26.066 51.445
56.230 27.029 44.099
59.460 27.996 36.295
62.860 28.958 28.079
66.460 29.922 19.381
70.270 30.886 10.175
74.300 31.849 0.438
78.550 32.810 -9.830
83.050 33.772 -20.702
87.810 34.734 -32.202
92.840 35.694 -44.355
98.160 36.654 -57.208
103.780 37.612 -70.787
109.730 38.571 -85.163
116.020 39.528 -100.363
122.660 40.483 -116.409
129.690 41.438 -133.400
137.120 42.391 -151.361
144.970 43.341 -170.340
153.280 44.291 169.564
162.060 45.237 148.326
171.340 46.179 125.872
181.160 47.119 102.104
191.540 48.053 76.972
202.510 48.982 50.405
214.110 49.903 22.305
226.380 50.815 -7.423
239.350 51.717 -38.845
253.060 52.605 -72.053
267.560 53.479 -107.155
282.890 54.336 -144.233
299.090 55.174 176.637
316.230 55.991 135.313
334.340 56.788 91.751
353.500 57.565 45.793
373.750 58.323 -2.625
395.160 59.067 -53.640
417.800 59.800 -107.395
441.730 60.529 -164.020
467.040 61.259 136.279
493.800 61.994 73.340
522.090 62.742 6.988
552.000 63.511 -62.974
583.620 64.321 -136.769
617.050 65.196 145.271
652.400 66.152 62.667
689.780 67.188 -25.142
729.290 68.278 -118.683
771.080 69.376 141.484
815.250 70.421 35.053
861.950 71.352 -78.234
911.330 72.115 161.511
963.540 72.668 34.366
1018.740 72.990 -99.715
1077.110 73.066 119.525
1138.810 72.949 -27.470
1204.050 72.797 179.380
1273.030 72.803 19.085
1345.960 73.032 -149.926
1423.070 73.434 30.609
1504.590 73.878 -160.205
1590.790 74.242 -3.084
1681.920 74.397 141.813
1778.280 74.262 -85.365
1880.150 73.877 36.155
1987.870 73.361 145.897
2101.750 72.955 -116.283
2222.150 72.832 -32.739
2349.460 72.844 33.848
2484.060 72.779 83.313
2626.360 72.686 116.026
2776.820 72.940 130.497
2935.900 73.489 121.803
3104.100 73.722 87.937
3281.930 73.079 30.233
3469.940 71.669 -46.812
3668.730 69.990 -140.381
3878.910 69.590 102.493
4101.130 69.775 -47.284
4336.070 69.606 128.905
4584.480 68.588 -87.572
4847.120 66.727 29.150
5124.810 65.495 116.483
5418.400 64.329 161.361
5728.810 64.327 175.453
6057.010 63.345 142.835
6404.000 61.629 68.860
6770.880 64.294 -51.405
7158.770 60.766 126.746
7568.890 58.116 -83.687
8002.500 49.021 -10.358
8460.950 49.936 60.239
8945.670 47.997 18.101
9458.160 42.482 -99.310
10000.000 28.516 81.981
