# Freq(Hz) SPL(dB) Phase (degrees)
10.000 -2.660 156.577
10.570 -1.697 155.242
11.180 -0.722 153.813
11.820 0.244 152.315
12.500 1.216 150.722
13.210 2.175 149.059
13.970 3.146 147.280
14.770 4.113 145.406
15.620 5.085 143.416
16.510 6.047 141.331
17.460 7.018 139.107
18.460 7.985 136.765
19.510 8.945 134.306
20.630 9.914 131.683
21.810 10.879 128.920
23.060 11.846 125.993
24.380 12.812 122.902
25.780 13.781 119.624
27.260 14.749 116.159
28.820 15.714 112.507
30.470 16.679 108.643
32.220 17.647 104.547
34.060 18.610 100.239
36.010 19.574 95.674
38.080 20.542 90.829
40.260 21.506 85.727
42.560 22.468 80.344
45.000 23.432 74.634
47.580 24.396 68.597
50.310 25.360 62.209
53.190 26.322 55.471
56.230 27.281 48.360
59.460 28.245 40.806
62.860 29.203 32.855
66.460 30.162 24.437
70.270 31.121 15.530
74.300 32.080 6.111
78.550 33.035 -3.820
83.050 33.990 -14.334
87.810 34.944 -25.452
92.840 35.897 -37.197
98.160 36.848 -49.617
103.780 37.796 -62.733
109.730 38.744 -76.615
116.020 39.690 -91.285
122.660 40.632 -106.766
129.690 41.573 -123.151
137.120 42.510 -140.461
144.970 43.444 -158.742
153.280 44.376 -178.086
162.060 45.303 161.486
171.340 46.225 139.906
181.160 47.143 117.084
191.540 48.056 92.978
202.510 48.961 67.523
214.110 49.860 40.634
226.380 50.751 12.229
239.350 51.633 -17.749
253.060 52.506 -49.375
267.560 53.370 -82.741
282.890 54.226 -117.914
299.090 55.077 -154.954
316.230 55.928 166.010
334.340 56.786 124.937
353.500 57.662 81.659
373.750 58.570 36.077
395.160 59.527 -12.020
417.800 60.547 -62.893
441.730 61.641 -116.844
467.040 62.808 -174.286
493.800 64.034 124.403
522.090 65.287 58.878
552.000 66.529 -11.128
583.620 67.721 -85.757
617.050 68.838 -165.093
652.400 69.871 110.759
689.780 70.818 21.630
729.290 71.674 -72.701
771.080 72.420 -172.596
815.250 73.020 81.781
861.950 73.433 -29.675
911.330 73.636 -146.885
963.540 73.647 90.394
1018.740 73.515 -37.814
1077.110 73.339 -171.616
1138.810 73.231 48.424
1204.050 73.255 -98.848
1273.030 73.366 105.430
1345.960 73.486 -59.255
1423.070 73.577 126.938
1504.590 73.703 -56.105
1590.790 73.989 110.739
1681.920 74.480 -94.305
1778.280 75.048 46.783
1880.150 75.459 172.855
1987.870 75.290 -76.433
2101.750 74.234 21.401
2222.150 72.432 111.270
2349.460 71.156 -164.129
2484.060 71.706 -95.523
2626.360 72.683 -53.600
2776.820 72.829 -34.471
2935.900 72.224 -32.828
3104.100 71.504 -47.884
3281.930 71.030 -83.232
3469.940 70.475 -142.095
3668.730 70.061 139.290
3878.910 70.533 29.799
4101.130 69.415 -113.978
4336.070 67.199 89.852
4584.480 67.378 -97.732
4847.120 65.677 38.612
5124.810 66.731 152.143
5418.400 66.457 -146.251
5728.810 64.003 -109.762
6057.010 63.215 -110.780
6404.000 63.728 -158.936
6770.880 61.889 85.909
7158.770 59.054 -6.602
7568.890 59.284 142.188
8002.500 59.548 -85.582
8460.950 49.950 -49.221
8945.670 54.567 -19.659
9458.160 55.752 -65.492
10000.000 51.752 143.751
