# Freq(Hz) SPL(dB) Phase (degrees)
10.000 -2.660 156.577
10.570 -1.697 155.242
11.180 -0.722 153.813
11.820 0.244 152.315
12.500 1.216 150.722
13.210 2.175 149.059
13.970 3.146 147.280
14.770 4.113 145.406
15.620 5.085 143.415
16.510 6.047 141.331
17.460 7.018 139.107
18.460 7.985 136.765
19.510 8.945 134.306
20.630 9.914 131.683
21.810 10.879 128.920
23.060 11.846 125.993
24.380 12.812 122.902
25.780 13.781 119.624
27.260 14.749 116.159
28.820 15.714 112.506
30.470 16.679 108.643
32.220 17.647 104.547
34.060 18.610 100.239
36.010 19.574 95.674
38.080 20.542 90.829
40.260 21.506 85.727
42.560 22.468 80.344
45.000 23.432 74.634
47.580 24.396 68.596
50.310 25.360 62.209
53.190 26.322 55.471
56.230 27.281 48.360
59.460 28.245 40.806
62.860 29.203 32.855
66.460 30.162 24.437
70.270 31.121 15.530
74.300 32.080 6.111
78.550 33.035 -3.820
83.050 33.990 -14.334
87.810 34.944 -25.452
92.840 35.897 -37.197
98.160 36.848 -49.617
103.780 37.796 -62.733
109.730 38.744 -76.615
116.020 39.690 -91.285
122.660 40.632 -106.766
129.690 41.573 -123.151
137.120 42.510 -140.461
144.970 43.444 -158.742
153.280 44.376 -178.086
162.060 45.303 161.485
171.340 46.225 139.905
181.160 47.143 117.083
191.540 48.056 92.977
202.510 48.961 67.523
214.110 49.860 40.634
226.380 50.751 12.228
239.350 51.633 -17.750
253.060 52.506 -49.375
267.560 53.370 -82.742
282.890 54.226 -117.914
299.090 55.077 -154.954
316.230 55.928 166.009
334.340 56.786 124.936
353.500 57.662 81.659
373.750 58.570 36.076
395.160 59.527 -12.020
417.800 60.547 -62.894
441.730 61.640 -116.844
467.040 62.808 -174.287
493.800 64.034 124.403
522.090 65.287 58.878
552.000 66.529 -11.128
583.620 67.721 -85.757
617.050 68.838 -165.093
652.400 69.871 110.759
689.780 70.818 21.630
729.290 71.674 -72.702
771.080 72.420 -172.598
815.250 73.020 81.779
861.950 73.433 -29.677
911.330 73.636 -146.888
963.540 73.648 90.390
1018.740 73.515 -37.818
1077.110 73.339 -171.621
1138.810 73.230 48.419
1204.050 73.254 -98.850
1273.030 73.366 105.432
1345.960 73.486 -59.247
1423.070 73.577 126.942
1504.590 73.706 -56.092
1590.790 73.990 110.735
1681.920 74.482 -94.314
1778.280 75.054 46.796
1880.150 75.440 172.885
1987.870 75.289 -76.445
2101.750 74.234 21.395
2222.150 72.431 111.259
2349.460 71.170 -164.183
2484.060 71.706 -95.523
2626.360 72.684 -53.605
2776.820 72.834 -34.490
2935.900 72.224 -32.871
3104.100 71.505 -47.961
3281.930 71.017 -83.228
3469.940 70.473 -142.050
3668.730 70.060 139.316
3878.910 70.533 29.776
4101.130 69.409 -114.017
4336.070 67.201 89.777
4584.480 67.383 -97.765
4847.120 65.700 38.526
5124.810 66.725 152.173
5418.400 66.467 -146.142
5728.810 63.907 -110.063
6057.010 63.201 -111.405
6404.000 63.764 -159.342
6770.880 61.758 85.729
7158.770 59.178 -6.922
7568.890 58.471 138.923
8002.500 59.306 -84.200
8460.950 48.820 -47.862
8945.670 54.668 -24.281
9458.160 55.740 -62.950
10000.000 51.277 146.735
