# Freq(Hz) SPL(dB) Phase (degrees)
10.000 -3.120 155.339
10.570 -2.157 153.934
11.180 -1.182 152.430
11.820 -0.215 150.851
12.500 0.756 149.175
13.210 1.716 147.424
13.970 2.688 145.550
14.770 3.655 143.577
15.620 4.627 141.481
16.510 5.590 139.287
17.460 6.562 136.944
18.460 7.529 134.478
19.510 8.490 131.889
20.630 9.460 129.127
21.810 10.426 126.218
23.060 11.394 123.135
24.380 12.361 119.880
25.780 13.331 116.428
27.260 14.301 112.779
28.820 15.267 108.932
30.470 16.234 104.863
32.220 17.205 100.548
34.060 18.169 96.011
36.010 19.136 91.202
38.080 20.107 86.098
40.260 21.074 80.722
42.560 22.039 75.050
45.000 23.008 69.034
47.580 23.976 62.671
50.310 24.945 55.939
53.190 25.912 48.837
56.230 26.878 41.340
59.460 27.848 33.375
62.860 28.814 24.990
66.460 29.782 16.112
70.270 30.750 6.715
74.300 31.719 -3.225
78.550 32.686 -13.707
83.050 33.654 -24.808
87.810 34.623 -36.550
92.840 35.591 -48.960
98.160 36.560 -62.087
103.780 37.528 -75.956
109.730 38.498 -90.643
116.020 39.467 -106.172
122.660 40.436 -122.569
129.690 41.406 -139.935
137.120 42.376 -158.296
144.970 43.345 -177.702
153.280 44.315 161.744
162.060 45.285 140.016
171.340 46.254 117.037
181.160 47.222 92.703
191.540 48.189 66.964
202.510 49.153 39.740
214.110 50.114 10.931
226.380 51.071 -19.566
239.350 52.023 -51.825
253.060 52.966 -85.947
267.560 53.901 -122.051
282.890 54.826 -160.234
299.090 55.737 159.414
316.230 56.636 116.727
334.340 57.519 71.639
353.500 58.388 23.959
373.750 59.242 -26.412
395.160 60.080 -79.654
417.800 60.900 -135.956
441.730 61.698 164.512
467.040 62.463 101.509
493.800 63.181 34.872
522.090 63.832 -35.522
552.000 64.400 -109.724
583.620 64.884 172.305
617.050 65.309 90.598
652.400 65.728 5.046
689.780 66.202 -84.698
729.290 66.780 -179.193
771.080 67.476 80.753
815.250 68.271 -25.519
861.950 69.123 -138.697
911.330 69.978 100.629
963.540 70.761 -28.032
1018.740 71.397 -165.135
1077.110 71.756 49.072
1138.810 71.708 -105.041
1204.050 71.185 93.418
1273.030 70.248 -74.481
1345.960 69.039 112.279
1423.070 67.946 -65.405
1504.590 67.565 111.085
1590.790 68.264 -83.634
1681.920 69.602 65.193
1778.280 70.957 -163.678
1880.150 71.910 -48.572
1987.870 72.390 51.233
2101.750 72.418 137.193
2222.150 72.166 -150.488
2349.460 71.850 -92.114
2484.060 71.699 -48.800
2626.360 72.014 -23.317
2776.820 72.596 -20.144
2935.900 72.911 -40.277
3104.100 72.763 -83.188
3281.930 72.093 -147.595
3469.940 71.199 127.252
3668.730 70.477 18.904
3878.910 69.973 -116.364
4101.130 69.314 78.783
4336.070 68.359 -115.906
4584.480 66.849 21.996
4847.120 65.955 134.444
5124.810 66.439 -148.772
5418.400 67.265 -128.226
5728.810 65.908 -136.863
6057.010 66.432 169.964
6404.000 66.278 61.201
6770.880 65.702 -75.572
7158.770 62.236 86.225
7568.890 59.549 -160.906
8002.500 57.577 -92.864
8460.950 56.060 -85.794
8945.670 50.157 -117.942
9458.160 53.166 134.705
10000.000 49.851 -56.664
