# Freq(Hz) SPL(dB) Phase (degrees)
10.000 -1.787 158.742
10.570 -0.824 157.531
11.180 0.150 156.234
11.820 1.117 154.874
12.500 2.088 153.429
13.210 3.048 151.921
13.970 4.019 150.306
14.770 4.986 148.606
15.620 5.957 146.800
16.510 6.919 144.909
17.460 7.890 142.890
18.460 8.857 140.766
19.510 9.817 138.535
20.630 10.786 136.156
21.810 11.751 133.650
23.060 12.718 130.995
24.380 13.683 128.192
25.780 14.651 125.219
27.260 15.619 122.077
28.820 16.584 118.766
30.470 17.549 115.264
32.220 18.517 111.550
34.060 19.479 107.646
36.010 20.443 103.510
38.080 21.411 99.120
40.260 22.374 94.498
42.560 23.335 89.624
45.000 24.299 84.454
47.580 25.263 78.989
50.310 26.227 73.210
53.190 27.188 67.115
56.230 28.147 60.685
59.460 29.110 53.857
62.860 30.069 46.674
66.460 31.029 39.073
70.270 31.988 31.034
74.300 32.948 22.538
78.550 33.905 13.586
83.050 34.863 4.115
87.810 35.821 -5.893
92.840 36.778 -16.458
98.160 37.736 -27.620
103.780 38.693 -39.398
109.730 39.653 -51.853
116.020 40.614 -65.003
122.660 41.575 -78.869
129.690 42.540 -93.532
137.120 43.508 -109.011
144.970 44.481 -125.348
153.280 45.460 -142.628
162.060 46.447 -160.872
171.340 47.442 179.852
181.160 48.449 159.456
191.540 49.469 137.888
202.510 50.503 115.074
214.110 51.554 90.915
226.380 52.624 65.306
239.350 53.713 38.162
253.060 54.822 9.372
267.560 55.952 -21.200
282.890 57.102 -53.671
299.090 58.269 -88.158
316.230 59.454 -124.845
334.340 60.651 -163.833
353.500 61.858 154.669
373.750 63.067 110.532
395.160 64.272 63.560
417.800 65.460 13.555
441.730 66.615 -39.650
467.040 67.714 -96.261
493.800 68.728 -156.381
522.090 69.623 139.965
552.000 70.375 72.859
583.620 70.978 2.498
617.050 71.461 -70.903
652.400 71.891 -147.269
689.780 72.360 133.179
729.290 72.950 49.855
771.080 73.693 -38.211
815.250 74.552 -131.877
861.950 75.444 128.206
911.330 76.280 21.774
963.540 76.996 -91.222
1018.740 77.566 149.386
1077.110 78.000 23.629
1138.810 78.341 -108.552
1204.050 78.632 112.452
1273.030 78.905 -33.804
1345.960 79.191 172.145
1423.070 79.505 9.592
1504.590 79.840 -162.118
1590.790 80.179 16.314
1681.920 80.481 -175.682
1778.280 80.731 -18.303
1880.150 81.024 127.894
1987.870 81.368 -98.656
2101.750 81.629 20.968
2222.150 81.612 126.693
2349.460 81.353 -140.416
2484.060 81.165 -61.131
2626.360 81.017 2.667
2776.820 80.892 50.507
2935.900 80.994 81.011
3104.100 81.218 91.094
3281.930 81.265 80.772
3469.940 81.386 49.774
3668.730 81.490 -4.929
3878.910 81.294 -83.608
4101.130 80.934 174.239
4336.070 80.565 46.797
4584.480 80.416 -106.530
4847.120 80.615 67.725
5124.810 80.409 -151.121
5418.400 79.830 -41.973
5728.810 79.129 35.259
6057.010 78.775 75.634
6404.000 78.437 76.713
6770.880 77.969 34.041
7158.770 76.936 -51.852
7568.890 76.014 -177.957
8002.500 75.586 0.991
8460.950 74.363 128.523
8945.670 72.017 -154.449
9458.160 71.382 -135.309
10000.000 69.295 -178.667
