# Freq(Hz) SPL(dB) Phase (degrees)
10.000 -2.198 157.750
10.570 -1.235 156.482
11.180 -0.261 155.125
11.820 0.706 153.701
12.500 1.677 152.189
13.210 2.636 150.609
13.970 3.607 148.919
14.770 4.574 147.139
15.620 5.545 145.249
16.510 6.507 143.269
17.460 7.478 141.156
18.460 8.445 138.932
19.510 9.405 136.597
20.630 10.373 134.106
21.810 11.338 131.482
23.060 12.305 128.703
24.380 13.270 125.768
25.780 14.239 122.655
27.260 15.206 119.365
28.820 16.171 115.897
30.470 17.136 112.230
32.220 18.103 108.341
34.060 19.065 104.252
36.010 20.028 99.919
38.080 20.995 95.321
40.260 21.958 90.479
42.560 22.919 85.371
45.000 23.882 79.954
47.580 24.845 74.228
50.310 25.807 68.170
53.190 26.767 61.781
56.230 27.725 55.039
59.460 28.687 47.879
62.860 29.643 40.345
66.460 30.600 32.371
70.270 31.557 23.936
74.300 32.513 15.019
78.550 33.466 5.620
83.050 34.419 -4.325
87.810 35.371 -14.838
92.840 36.321 -25.938
98.160 37.270 -37.669
103.780 38.217 -50.051
109.730 39.164 -63.147
116.020 40.109 -76.978
122.660 41.052 -91.563
129.690 41.995 -106.988
137.120 42.937 -123.270
144.970 43.878 -140.452
153.280 44.820 -158.618
162.060 45.762 -177.786
171.340 46.706 161.981
181.160 47.652 140.600
191.540 48.601 118.029
202.510 49.555 94.205
214.110 50.515 69.043
226.380 51.484 42.455
239.350 52.464 14.376
253.060 53.458 -15.288
267.560 54.470 -46.654
282.890 55.504 -79.825
299.090 56.564 -114.912
316.230 57.655 -152.103
334.340 58.781 168.483
353.500 59.946 126.605
373.750 61.150 82.086
395.160 62.392 34.667
417.800 63.662 -15.929
441.730 64.945 -69.954
467.040 66.218 -127.712
493.800 67.444 170.588
522.090 68.584 104.800
552.000 69.596 34.873
583.620 70.448 -39.124
617.050 71.129 -117.072
652.400 71.646 161.117
689.780 72.024 75.464
729.290 72.290 -14.066
771.080 72.476 -107.643
815.250 72.619 154.689
861.950 72.789 52.727
911.330 73.081 -54.052
963.540 73.569 -166.772
1018.740 74.203 73.337
1077.110 74.853 -54.603
1138.810 75.386 169.358
1204.050 75.739 25.459
1273.030 75.926 -125.946
1345.960 76.039 75.235
1423.070 76.206 -91.566
1504.590 76.507 92.461
1590.790 76.926 -94.048
1681.920 77.368 67.727
1778.280 77.674 -142.885
1880.150 77.733 -5.470
1987.870 77.616 119.963
2101.750 77.329 -127.062
2222.150 76.922 -26.449
2349.460 76.623 61.285
2484.060 76.531 132.808
2626.360 76.348 -172.327
2776.820 76.105 -133.774
2935.900 76.083 -112.867
3104.100 76.213 -113.168
3281.930 76.042 -135.058
3469.940 75.772 -177.176
3668.730 75.578 117.856
3878.910 75.304 28.048
4101.130 74.748 -86.701
4336.070 74.471 135.188
4584.480 74.652 -36.328
4847.120 74.202 122.156
5124.810 73.923 -110.531
5418.400 73.243 -18.933
5728.810 72.483 41.219
6057.010 72.255 61.788
6404.000 71.655 41.392
6770.880 70.852 -22.260
7158.770 70.204 -127.557
7568.890 69.262 78.240
8002.500 68.238 -126.276
8460.950 66.886 -24.609
8945.670 65.350 22.382
9458.160 63.171 12.286
10000.000 61.063 -57.667
