# Freq(Hz) SPL(dB) Phase (degrees)
10.000 -3.045 155.546
10.570 -2.082 154.152
11.180 -1.107 152.661
11.820 -0.140 151.096
12.500 0.831 149.433
13.210 1.791 147.697
13.970 2.762 145.839
14.770 3.730 143.883
15.620 4.702 141.804
16.510 5.664 139.628
17.460 6.636 137.305
18.460 7.603 134.860
19.510 8.564 132.293
20.630 9.534 129.554
21.810 10.500 126.669
23.060 11.467 123.612
24.380 12.434 120.385
25.780 13.404 116.961
27.260 14.373 113.343
28.820 15.339 109.528
30.470 16.306 105.494
32.220 17.276 101.215
34.060 18.240 96.716
36.010 19.207 91.948
38.080 20.177 86.887
40.260 21.143 81.556
42.560 22.108 75.933
45.000 23.075 69.967
47.580 24.043 63.658
50.310 25.011 56.983
53.190 25.976 49.942
56.230 26.941 42.509
59.460 27.909 34.611
62.860 28.874 26.298
66.460 29.839 17.495
70.270 30.806 8.179
74.300 31.773 -1.675
78.550 32.737 -12.067
83.050 33.702 -23.071
87.810 34.667 -34.712
92.840 35.632 -47.014
98.160 36.597 -60.026
103.780 37.560 -73.773
109.730 38.525 -88.330
116.020 39.489 -103.721
122.660 40.451 -119.972
129.690 41.414 -137.181
137.120 42.376 -155.375
144.970 43.337 -174.604
153.280 44.298 165.032
162.060 45.256 143.507
171.340 46.213 120.744
181.160 47.168 96.644
191.540 48.120 71.154
202.510 49.067 44.199
214.110 50.009 15.678
226.380 50.945 -14.507
239.350 51.872 -46.428
253.060 52.789 -80.183
267.560 53.695 -115.887
282.890 54.585 -153.630
299.090 55.459 166.500
316.230 56.316 124.348
334.340 57.153 79.856
353.500 57.971 32.845
373.750 58.768 -16.770
395.160 59.545 -69.149
417.800 60.301 -124.461
441.730 61.032 177.150
467.040 61.733 115.472
493.800 62.394 50.374
522.090 63.005 -18.245
552.000 63.562 -90.427
583.620 64.081 -166.167
617.050 64.605 114.460
652.400 65.194 31.155
689.780 65.900 -56.655
729.290 66.742 -149.701
771.080 67.693 111.170
815.250 68.694 5.381
861.950 69.672 -107.558
911.330 70.555 132.039
963.540 71.267 4.055
1018.740 71.751 -131.670
1077.110 71.920 85.051
1138.810 71.733 -65.046
1204.050 71.278 139.050
1273.030 70.829 -22.302
1345.960 70.695 169.885
1423.070 71.093 -7.114
1504.590 71.913 163.980
1590.790 72.916 -38.634
1681.920 73.833 104.493
1778.280 74.488 -126.692
1880.150 74.814 -11.507
1987.870 74.744 89.793
2101.750 74.304 177.740
2222.150 73.591 -107.485
2349.460 72.777 -46.403
2484.060 72.036 0.237
2626.360 71.539 30.395
2776.820 71.219 42.116
2935.900 71.144 34.767
3104.100 71.510 5.723
3281.930 72.154 -49.076
3469.940 72.515 -130.251
3668.730 72.431 122.404
3878.910 72.376 -10.480
4101.130 72.189 -174.215
4336.070 71.149 -8.060
4584.480 69.348 131.843
4847.120 68.179 -112.513
5124.810 68.151 -36.016
5418.400 67.225 5.391
5728.810 67.214 3.525
6057.010 66.935 -41.381
6404.000 67.657 -136.680
6770.880 65.383 94.024
7158.770 63.282 -95.158
7568.890 61.802 30.603
8002.500 60.353 112.831
8460.950 61.322 119.613
8945.670 56.116 85.584
9458.160 53.524 -13.535
10000.000 50.864 163.322
