# Freq(Hz) SPL(dB) Phase (degrees)
10.000 -1.066 160.369
10.570 -0.103 159.251
11.180 0.872 158.053
11.820 1.839 156.798
12.500 2.810 155.463
13.210 3.770 154.070
13.970 4.742 152.579
14.770 5.709 151.009
15.620 6.681 149.342
16.510 7.643 147.596
17.460 8.615 145.732
18.460 9.582 143.771
19.510 10.543 141.712
20.630 11.513 139.515
21.810 12.479 137.202
23.060 13.447 134.751
24.380 14.413 132.163
25.780 15.383 129.419
27.260 16.352 126.519
28.820 17.319 123.463
30.470 18.286 120.231
32.220 19.256 116.804
34.060 20.220 113.201
36.010 21.187 109.385
38.080 22.158 105.335
40.260 23.125 101.071
42.560 24.090 96.574
45.000 25.058 91.806
47.580 26.027 86.766
50.310 26.997 81.436
53.190 27.964 75.817
56.230 28.931 69.889
59.460 29.903 63.594
62.860 30.871 56.973
66.460 31.842 49.968
70.270 32.815 42.559
74.300 33.789 34.729
78.550 34.763 26.478
83.050 35.741 17.750
87.810 36.721 8.524
92.840 37.704 -1.217
98.160 38.692 -11.513
103.780 39.683 -22.383
109.730 40.682 -33.887
116.020 41.687 -46.045
122.660 42.699 -58.881
129.690 43.722 -72.477
137.120 44.756 -86.859
144.970 45.801 -102.075
153.280 46.862 -118.215
162.060 47.937 -135.313
171.340 49.028 -153.446
181.160 50.137 -172.713
191.540 51.263 166.824
202.510 52.405 145.079
214.110 53.563 121.950
226.380 54.733 97.331
239.350 55.912 71.143
253.060 57.096 43.288
267.560 58.280 13.660
282.890 59.457 -17.822
299.090 60.623 -51.225
316.230 61.774 -86.666
334.340 62.903 -124.169
353.500 64.013 -163.852
373.750 65.101 154.254
395.160 66.175 110.053
417.800 67.241 63.439
441.730 68.311 14.299
467.040 69.399 -37.580
493.800 70.517 -92.431
522.090 71.669 -150.558
552.000 72.847 147.688
583.620 74.026 82.003
617.050 75.175 12.166
652.400 76.266 -61.956
689.780 77.284 -140.435
729.290 78.225 136.683
771.080 79.094 49.217
815.250 79.899 -42.949
861.950 80.650 -140.062
911.330 81.358 117.628
963.540 82.036 9.879
1018.740 82.724 -103.694
1077.110 83.444 136.183
1138.810 84.141 8.692
1204.050 84.700 -126.473
1273.030 85.075 91.028
1345.960 85.324 -58.731
1423.070 85.501 143.834
1504.590 85.607 -21.683
1590.790 85.686 164.540
1681.920 85.864 -17.977
1778.280 86.233 149.267
1880.150 86.718 -55.419
1987.870 87.149 87.219
2101.750 87.462 -142.756
2222.150 87.698 -25.642
2349.460 87.877 77.501
2484.060 87.938 165.937
2626.360 87.849 -120.759
2776.820 87.617 -63.063
2935.900 87.333 -21.400
3104.100 87.114 2.459
3281.930 86.762 6.826
3469.940 86.319 -7.815
3668.730 85.837 -43.632
3878.910 85.255 -100.853
4101.130 84.787 179.312
4336.070 84.478 73.134
4584.480 83.750 -60.007
4847.120 82.899 140.534
5124.810 81.944 -45.730
5418.400 81.621 99.735
5728.810 81.388 -148.931
6057.010 81.542 -75.014
6404.000 81.622 -41.163
6770.880 81.450 -44.191
7158.770 81.468 -87.044
7568.890 81.900 -176.216
8002.500 82.100 44.958
8460.950 81.859 -143.307
8945.670 81.734 -23.265
9458.160 81.743 42.666
10000.000 81.312 47.432
