# Freq(Hz) SPL(dB) Phase (degrees)
10.000 -2.942 155.827
10.570 -1.979 154.449
11.180 -1.004 152.975
11.820 -0.037 151.428
12.500 0.934 149.784
13.210 1.894 148.068
13.970 2.865 146.231
14.770 3.832 144.298
15.620 4.804 142.243
16.510 5.767 140.092
17.460 6.738 137.796
18.460 7.705 135.379
19.510 8.666 132.841
20.630 9.635 130.134
21.810 10.601 127.282
23.060 11.569 124.261
24.380 12.535 121.070
25.780 13.504 117.687
27.260 14.473 114.110
28.820 15.439 110.339
30.470 16.405 106.351
32.220 17.374 102.122
34.060 18.338 97.675
36.010 19.304 92.962
38.080 20.273 87.960
40.260 21.239 82.691
42.560 22.202 77.133
45.000 23.169 71.236
47.580 24.135 65.002
50.310 25.102 58.405
53.190 26.066 51.445
56.230 27.029 44.099
59.460 27.996 36.295
62.860 28.958 28.079
66.460 29.922 19.381
70.270 30.886 10.175
74.300 31.849 0.438
78.550 32.810 -9.830
83.050 33.772 -20.702
87.810 34.734 -32.202
92.840 35.694 -44.355
98.160 36.654 -57.208
103.780 37.612 -70.787
109.730 38.571 -85.164
116.020 39.528 -100.363
122.660 40.483 -116.409
129.690 41.438 -133.400
137.120 42.391 -151.361
144.970 43.341 -170.340
153.280 44.291 169.564
162.060 45.237 148.326
171.340 46.179 125.871
181.160 47.119 102.103
191.540 48.053 76.972
202.510 48.982 50.404
214.110 49.903 22.304
226.380 50.815 -7.423
239.350 51.717 -38.845
253.060 52.605 -72.053
267.560 53.479 -107.155
282.890 54.336 -144.233
299.090 55.174 176.637
316.230 55.991 135.312
334.340 56.788 91.751
353.500 57.565 45.792
373.750 58.323 -2.625
395.160 59.067 -53.640
417.800 59.800 -107.396
441.730 60.529 -164.021
467.040 61.259 136.278
493.800 61.994 73.340
522.090 62.741 6.988
552.000 63.511 -62.974
583.620 64.321 -136.768
617.050 65.196 145.272
652.400 66.152 62.668
689.780 67.189 -25.140
729.290 68.279 -118.681
771.080 69.376 141.486
815.250 70.422 35.055
861.950 71.353 -78.233
911.330 72.116 161.511
963.540 72.669 34.366
1018.740 72.991 -99.716
1077.110 73.068 119.523
1138.810 72.950 -27.475
1204.050 72.798 179.371
1273.030 72.803 19.075
1345.960 73.032 -149.936
1423.070 73.434 30.602
1504.590 73.877 -160.206
1590.790 74.242 -3.086
1681.920 74.397 141.816
1778.280 74.256 -85.355
1880.150 73.885 35.911
1987.870 73.363 145.880
2101.750 72.953 -116.292
2222.150 72.831 -32.771
2349.460 72.838 33.881
2484.060 72.778 83.328
2626.360 72.686 116.033
2776.820 72.944 130.517
2935.900 73.491 121.804
3104.100 73.725 87.925
3281.930 73.082 30.242
3469.940 71.673 -46.835
3668.730 70.000 -140.404
3878.910 69.591 102.428
4101.130 69.794 -47.381
4336.070 69.617 128.714
4584.480 68.590 -87.686
4847.120 66.748 28.946
5124.810 65.462 116.410
5418.400 64.359 161.494
5728.810 64.346 175.567
6057.010 63.338 142.912
6404.000 61.556 68.937
6770.880 64.246 -51.877
7158.770 60.768 126.146
7568.890 57.724 -79.114
8002.500 46.059 -16.606
8460.950 50.694 61.947
8945.670 49.225 16.774
9458.160 44.381 -105.594
10000.000 34.491 90.743
