# Freq(Hz) SPL(dB) Phase (degrees)
10.000 -2.880 155.993
10.570 -1.917 154.624
11.180 -0.943 153.160
11.820 0.024 151.624
12.500 0.996 149.992
13.210 1.955 148.287
13.970 2.927 146.463
14.770 3.894 144.543
15.620 4.865 142.502
16.510 5.828 140.366
17.460 6.799 138.086
18.460 7.766 135.685
19.510 8.727 133.165
20.630 9.696 130.476
21.810 10.662 127.644
23.060 11.629 124.644
24.380 12.595 121.475
25.780 13.564 118.115
27.260 14.533 114.563
28.820 15.499 110.818
30.470 16.465 106.858
32.220 17.434 102.658
34.060 18.397 98.242
36.010 19.362 93.562
38.080 20.332 88.594
40.260 21.297 83.362
42.560 22.260 77.842
45.000 23.225 71.987
47.580 24.191 65.796
50.310 25.157 59.245
53.190 26.121 52.334
56.230 27.083 45.040
59.460 28.049 37.290
62.860 29.010 29.133
66.460 29.972 20.496
70.270 30.935 11.357
74.300 31.897 1.689
78.550 32.857 -8.505
83.050 33.816 -19.299
87.810 34.776 -30.715
92.840 35.734 -42.779
98.160 36.692 -55.537
103.780 37.647 -69.015
109.730 38.603 -83.284
116.020 39.557 -98.368
122.660 40.508 -114.291
129.690 41.459 -131.151
137.120 42.407 -148.970
144.970 43.352 -167.799
153.280 44.296 172.268
162.060 45.236 151.204
171.340 46.172 128.939
181.160 47.104 105.374
191.540 48.031 80.463
202.510 48.950 54.134
214.110 49.862 26.295
226.380 50.764 -3.148
239.350 51.655 -34.259
253.060 52.532 -67.125
267.560 53.394 -101.849
282.890 54.239 -138.507
299.090 55.065 -177.170
316.230 55.872 142.028
334.340 56.660 99.052
353.500 57.433 53.752
373.750 58.195 6.071
395.160 58.953 -44.123
417.800 59.717 -96.978
441.730 60.498 -152.641
467.040 61.308 148.640
493.800 62.158 86.635
522.090 63.052 21.068
552.000 63.994 -48.366
583.620 64.983 -121.972
617.050 66.018 159.907
652.400 67.092 76.880
689.780 68.194 -11.466
729.290 69.295 -105.515
771.080 70.360 154.275
815.250 71.337 47.659
861.950 72.173 -65.574
911.330 72.821 174.505
963.540 73.257 48.018
1018.740 73.472 -85.068
1077.110 73.481 135.456
1138.810 73.357 -10.188
1204.050 73.251 -162.294
1273.030 73.285 37.944
1345.960 73.461 -130.825
1423.070 73.698 50.147
1504.590 73.890 -139.623
1590.790 73.954 19.495
1681.920 73.836 167.610
1778.280 73.571 -54.996
1880.150 73.383 71.824
1987.870 73.471 -174.318
2101.750 73.823 -75.984
2222.150 74.100 4.957
2349.460 73.969 68.817
2484.060 73.403 117.422
2626.360 72.762 151.884
2776.820 72.624 168.870
2935.900 72.632 162.723
3104.100 72.120 133.846
3281.930 70.968 86.036
3469.940 70.193 20.076
3668.730 70.163 -71.094
3878.910 69.953 165.362
4101.130 68.757 13.877
4336.070 67.080 -160.580
4584.480 65.705 -2.027
4847.120 65.048 129.037
5124.810 65.580 -139.565
5418.400 64.427 -95.213
5728.810 62.173 -79.651
6057.010 63.237 -96.242
6404.000 63.572 -179.439
6770.880 60.546 27.377
7158.770 56.321 -100.168
7568.890 55.529 52.348
8002.500 57.700 128.271
8460.950 48.187 169.097
8945.670 45.035 -145.861
9458.160 48.602 167.977
10000.000 44.778 -20.853
