# Freq(Hz) SPL(dB) Phase (degrees)
10.000 -0.901 160.722
10.570 0.062 159.624
11.180 1.037 158.448
11.820 2.004 157.215
12.500 2.976 155.905
13.210 3.936 154.537
13.970 4.907 153.073
14.770 5.875 151.531
15.620 6.847 149.894
16.510 7.809 148.179
17.460 8.781 146.349
18.460 9.749 144.423
19.510 10.710 142.401
20.630 11.680 140.244
21.810 12.646 137.972
23.060 13.614 135.566
24.380 14.581 133.025
25.780 15.552 130.330
27.260 16.522 127.482
28.820 17.489 124.481
30.470 18.456 121.307
32.220 19.427 117.942
34.060 20.392 114.405
36.010 21.360 110.657
38.080 22.331 106.680
40.260 23.299 102.494
42.560 24.266 98.078
45.000 25.236 93.396
47.580 26.206 88.447
50.310 27.178 83.214
53.190 28.147 77.696
56.230 29.117 71.874
59.460 30.091 65.693
62.860 31.063 59.191
66.460 32.037 52.311
70.270 33.013 45.035
74.300 33.992 37.344
78.550 34.971 29.239
83.050 35.954 20.664
87.810 36.941 11.599
92.840 37.931 2.025
98.160 38.927 -8.096
103.780 39.927 -18.785
109.730 40.936 -30.101
116.020 41.953 -42.066
122.660 42.978 -54.705
129.690 44.014 -68.099
137.120 45.063 -82.277
144.970 46.124 -97.289
153.280 47.202 -113.224
162.060 48.294 -130.120
171.340 49.403 -148.052
181.160 50.530 -167.122
191.540 51.672 172.608
202.510 52.829 151.057
214.110 53.999 128.122
226.380 55.179 103.703
239.350 56.365 77.726
253.060 57.550 50.103
267.560 58.731 20.737
282.890 59.901 -10.440
299.090 61.056 -43.479
316.230 62.192 -78.481
334.340 63.306 -115.452
353.500 64.403 -154.492
373.750 65.489 164.378
395.160 66.574 121.062
417.800 67.678 75.428
441.730 68.820 27.299
467.040 70.018 -23.649
493.800 71.278 -77.781
522.090 72.585 -135.514
552.000 73.899 162.783
583.620 75.170 96.911
617.050 76.350 26.846
652.400 77.418 -47.326
689.780 78.377 -125.504
729.290 79.257 152.346
771.080 80.100 65.989
815.250 80.940 -24.895
861.950 81.787 -120.835
911.330 82.621 137.732
963.540 83.427 30.571
1018.740 84.227 -82.620
1077.110 85.037 157.454
1138.810 85.784 30.043
1204.050 86.352 -104.982
1273.030 86.719 112.770
1345.960 86.948 -36.757
1423.070 87.071 165.957
1504.590 87.075 0.607
1590.790 86.992 -172.951
1681.920 86.922 4.981
1778.280 86.962 173.222
1880.150 87.052 -29.518
1987.870 87.148 116.332
2101.750 87.301 -110.069
2222.150 87.434 10.080
2349.460 87.441 116.159
2484.060 87.277 -151.814
2626.360 87.031 -73.820
2776.820 86.907 -11.433
2935.900 86.736 32.779
3104.100 86.287 59.140
3281.930 85.718 66.951
3469.940 84.701 55.209
3668.730 83.364 26.627
3878.910 82.264 -19.503
4101.130 81.735 -87.003
4336.070 81.941 -179.435
4584.480 82.349 58.991
4847.120 83.082 -91.787
5124.810 83.655 84.110
5418.400 83.823 -132.161
5728.810 83.835 -17.922
6057.010 84.187 59.954
6404.000 84.445 100.984
6770.880 85.054 101.125
7158.770 85.154 59.531
7568.890 84.921 -25.690
8002.500 84.527 -156.117
8460.950 84.147 28.050
8945.670 84.388 159.722
9458.160 84.168 -124.179
10000.000 83.807 -106.075
