# Freq(Hz) SPL(dB) Phase (degrees)
10.000 -3.086 155.433
10.570 -2.123 154.033
11.180 -1.148 152.534
11.820 -0.182 150.962
12.500 0.790 149.292
13.210 1.750 147.548
13.970 2.722 145.681
14.770 3.689 143.716
15.620 4.661 141.628
16.510 5.623 139.441
17.460 6.595 137.108
18.460 7.563 134.651
19.510 8.523 132.072
20.630 9.493 129.321
21.810 10.459 126.422
23.060 11.427 123.351
24.380 12.394 120.109
25.780 13.364 116.670
27.260 14.333 113.034
28.820 15.300 109.202
30.470 16.267 105.149
32.220 17.237 100.850
34.060 18.201 96.330
36.010 19.168 91.540
38.080 20.139 86.455
40.260 21.105 81.100
42.560 22.070 75.450
45.000 23.038 69.456
47.580 24.006 63.118
50.310 24.975 56.412
53.190 25.941 49.337
56.230 26.906 41.869
59.460 27.876 33.935
62.860 28.841 25.582
66.460 29.808 16.738
70.270 30.775 7.378
74.300 31.743 -2.523
78.550 32.708 -12.965
83.050 33.675 -24.022
87.810 34.642 -35.718
92.840 35.609 -48.079
98.160 36.576 -61.155
103.780 37.542 -74.969
109.730 38.509 -89.597
116.020 39.477 -105.064
122.660 40.442 -121.395
129.690 41.409 -138.690
137.120 42.375 -156.976
144.970 43.340 -176.303
153.280 44.306 163.229
162.060 45.270 141.592
171.340 46.233 118.709
181.160 47.196 94.480
191.540 48.155 68.852
202.510 49.112 41.748
214.110 50.064 13.067
226.380 51.011 -17.291
239.350 51.951 -49.401
253.060 52.882 -83.360
267.560 53.803 -119.288
282.890 54.711 -157.278
299.090 55.605 162.581
316.230 56.484 120.128
334.340 57.345 75.299
353.500 58.189 27.908
373.750 59.015 -22.137
395.160 59.822 -75.007
417.800 60.610 -130.885
441.730 61.372 170.073
467.040 62.101 107.637
493.800 62.783 41.662
522.090 63.402 -27.962
552.000 63.947 -101.273
583.620 64.424 -178.232
617.050 64.866 101.167
652.400 65.332 16.751
689.780 65.886 -71.925
729.290 66.568 -165.520
771.080 67.377 95.101
815.250 68.272 -10.729
861.950 69.194 -123.639
911.330 70.074 115.900
963.540 70.827 -12.419
1018.740 71.384 -148.891
1077.110 71.627 66.477
1138.810 71.457 -85.695
1204.050 70.872 115.729
1273.030 70.051 -48.151
1345.960 69.315 143.075
1423.070 69.151 -32.111
1504.590 69.763 142.393
1590.790 70.924 -57.301
1681.920 72.178 87.342
1778.280 73.223 -143.627
1880.150 73.894 -29.031
1987.870 74.168 70.919
2101.750 74.049 157.154
2222.150 73.643 -130.385
2349.460 73.120 -72.070
2484.060 72.636 -28.785
2626.360 72.420 -2.616
2776.820 72.355 3.139
2935.900 72.086 -12.223
3104.100 71.555 -48.223
3281.930 71.001 -104.688
3469.940 70.518 176.897
3668.730 70.327 73.307
3878.910 70.493 -56.625
4101.130 70.912 141.603
4336.070 70.829 -53.800
4584.480 70.006 80.824
4847.120 69.294 -171.627
5124.810 69.572 -100.692
5418.400 68.423 -80.350
5728.810 66.270 -81.362
6057.010 65.689 -122.068
6404.000 65.639 148.902
6770.880 64.771 4.087
7158.770 64.442 178.240
7568.890 63.384 -64.599
8002.500 59.989 -9.840
8460.950 57.462 8.602
8945.670 54.599 -26.670
9458.160 54.799 -163.175
10000.000 48.741 47.563
