# Freq(Hz) SPL(dB) Phase (degrees)
10.000 -1.066 160.369
10.570 -0.103 159.251
11.180 0.872 158.053
11.820 1.839 156.798
12.500 2.810 155.463
13.210 3.770 154.070
13.970 4.742 152.579
14.770 5.709 151.009
15.620 6.681 149.342
16.510 7.643 147.596
17.460 8.615 145.732
18.460 9.582 143.771
19.510 10.543 141.712
20.630 11.513 139.515
21.810 12.479 137.202
23.060 13.447 134.751
24.380 14.413 132.163
25.780 15.383 129.419
27.260 16.352 126.519
28.820 17.319 123.463
30.470 18.286 120.231
32.220 19.256 116.804
34.060 20.220 113.201
36.010 21.187 109.385
38.080 22.158 105.335
40.260 23.125 101.071
42.560 24.090 96.574
45.000 25.058 91.806
47.580 26.027 86.766
50.310 26.997 81.436
53.190 27.964 75.817
56.230 28.931 69.889
59.460 29.903 63.594
62.860 30.871 56.973
66.460 31.842 49.968
70.270 32.815 42.559
74.300 33.789 34.729
78.550 34.763 26.478
83.050 35.741 17.750
87.810 36.721 8.524
92.840 37.704 -1.217
98.160 38.692 -11.513
103.780 39.683 -22.383
109.730 40.682 -33.887
116.020 41.687 -46.045
122.660 42.699 -58.881
129.690 43.722 -72.477
137.120 44.756 -86.859
144.970 45.801 -102.075
153.280 46.862 -118.215
162.060 47.937 -135.313
171.340 49.028 -153.446
181.160 50.137 -172.713
191.540 51.263 166.824
202.510 52.405 145.079
214.110 53.562 121.950
226.380 54.733 97.331
239.350 55.912 71.143
253.060 57.096 43.288
267.560 58.280 13.660
282.890 59.457 -17.822
299.090 60.623 -51.225
316.230 61.774 -86.666
334.340 62.903 -124.168
353.500 64.013 -163.852
373.750 65.102 154.254
395.160 66.175 110.053
417.800 67.241 63.439
441.730 68.311 14.300
467.040 69.399 -37.580
493.800 70.517 -92.431
522.090 71.669 -150.559
552.000 72.847 147.687
583.620 74.026 82.002
617.050 75.175 12.166
652.400 76.266 -61.956
689.780 77.284 -140.434
729.290 78.225 136.684
771.080 79.094 49.218
815.250 79.899 -42.947
861.950 80.651 -140.060
911.330 81.358 117.629
963.540 82.036 9.879
1018.740 82.724 -103.694
1077.110 83.444 136.183
1138.810 84.141 8.693
1204.050 84.700 -126.471
1273.030 85.075 91.030
1345.960 85.324 -58.730
1423.070 85.501 143.834
1504.590 85.607 -21.684
1590.790 85.687 164.538
1681.920 85.864 -17.980
1778.280 86.232 149.266
1880.150 86.710 -55.412
1987.870 87.149 87.217
2101.750 87.462 -142.760
2222.150 87.698 -25.647
2349.460 87.877 77.493
2484.060 87.937 165.932
2626.360 87.849 -120.761
2776.820 87.617 -63.062
2935.900 87.333 -21.401
3104.100 87.114 2.463
3281.930 86.762 6.847
3469.940 86.320 -7.822
3668.730 85.835 -43.640
3878.910 85.254 -100.864
4101.130 84.783 179.312
4336.070 84.477 73.128
4584.480 83.747 -59.983
4847.120 82.910 140.444
5124.810 81.948 -45.747
5418.400 81.622 99.742
5728.810 81.384 -148.978
6057.010 81.535 -75.001
6404.000 81.616 -41.159
6770.880 81.441 -44.198
7158.770 81.458 -87.267
7568.890 81.868 -176.336
8002.500 82.090 45.008
8460.950 81.852 -143.327
8945.670 81.724 -23.241
9458.160 81.746 42.588
10000.000 81.324 47.445
