# Freq(Hz) SPL(dB) Phase (degrees)
10.000 -0.864 160.799
10.570 0.099 159.705
11.180 1.073 158.535
11.820 2.041 157.306
12.500 3.012 156.001
13.210 3.972 154.639
13.970 4.944 153.180
14.770 5.911 151.645
15.620 6.883 150.014
16.510 7.846 148.306
17.460 8.818 146.484
18.460 9.786 144.565
19.510 10.747 142.551
20.630 11.717 140.403
21.810 12.683 138.140
23.060 13.651 135.743
24.380 14.619 133.213
25.780 15.589 130.529
27.260 16.559 127.692
28.820 17.526 124.703
30.470 18.494 121.542
32.220 19.464 118.190
34.060 20.430 114.667
36.010 21.398 110.935
38.080 22.370 106.974
40.260 23.338 102.804
42.560 24.305 98.406
45.000 25.275 93.742
47.580 26.246 88.813
50.310 27.218 83.601
53.190 28.188 78.105
56.230 29.158 72.306
59.460 30.133 66.150
62.860 31.105 59.673
66.460 32.080 52.820
70.270 33.058 45.573
74.300 34.037 37.912
78.550 35.017 29.839
83.050 36.002 21.297
87.810 36.990 12.266
92.840 37.982 2.728
98.160 38.979 -7.356
103.780 39.982 -18.006
109.730 40.993 -29.282
116.020 42.012 -41.206
122.660 43.040 -53.802
129.690 44.079 -67.154
137.120 45.131 -81.289
144.970 46.196 -96.257
153.280 47.277 -112.149
162.060 48.373 -129.002
171.340 49.486 -146.893
181.160 50.616 -165.921
191.540 51.762 173.852
202.510 52.922 152.342
214.110 54.094 129.449
226.380 55.276 105.075
239.350 56.462 79.147
253.060 57.647 51.578
267.560 58.827 22.273
282.890 59.996 -8.831
299.090 61.148 -41.784
316.230 62.281 -76.681
334.340 63.393 -113.527
353.500 64.489 -152.417
373.750 65.576 166.628
395.160 66.668 123.510
417.800 67.785 78.084
441.730 68.947 30.156
467.040 70.173 -20.626
493.800 71.465 -74.652
522.090 72.803 -132.352
552.000 74.140 165.918
583.620 75.422 99.994
617.050 76.602 29.897
652.400 77.659 -44.245
689.780 78.604 -122.305
729.290 79.474 155.756
771.080 80.320 69.676
815.250 81.179 -20.930
861.950 82.056 -116.660
911.330 82.922 142.030
963.540 83.754 34.932
1018.740 84.575 -78.222
1077.110 85.400 161.868
1138.810 86.155 34.465
1204.050 86.724 -100.523
1273.030 87.093 117.288
1345.960 87.327 -32.204
1423.070 87.453 170.481
1504.590 87.453 5.005
1590.790 87.343 -168.822
1681.920 87.193 8.796
1778.280 87.095 176.987
1880.150 87.032 -25.308
1987.870 87.026 121.280
2101.750 87.090 -104.574
2222.150 87.080 16.222
2349.460 86.932 123.438
2484.060 86.642 -143.011
2626.360 86.317 -63.107
2776.820 86.195 1.186
2935.900 86.051 47.301
3104.100 85.707 75.364
3281.930 85.169 84.245
3469.940 84.064 75.134
3668.730 83.029 50.257
3878.910 82.566 5.020
4101.130 82.275 -63.579
4336.070 82.503 -157.342
4584.480 82.871 82.498
4847.120 83.692 -68.416
5124.810 84.225 108.479
5418.400 84.457 -106.503
5728.810 84.743 7.360
6057.010 84.859 84.187
6404.000 84.726 126.561
6770.880 84.885 128.580
7158.770 84.873 92.579
7568.890 85.118 12.392
8002.500 85.099 -116.729
8460.950 84.938 67.785
8945.670 84.566 -161.514
9458.160 84.641 -81.507
10000.000 84.357 -60.375
