# Freq(Hz) SPL(dB) Phase (degrees)
10.000 -0.947 160.624
10.570 0.016 159.520
11.180 0.991 158.339
11.820 1.958 157.099
12.500 2.930 155.782
13.210 3.889 154.407
13.970 4.861 152.936
14.770 5.828 151.387
15.620 6.800 149.741
16.510 7.763 148.018
17.460 8.735 146.178
18.460 9.702 144.242
19.510 10.663 142.210
20.630 11.633 140.042
21.810 12.599 137.759
23.060 13.567 135.340
24.380 14.534 132.786
25.780 15.504 130.078
27.260 16.474 127.215
28.820 17.441 124.199
30.470 18.408 121.009
32.220 19.379 117.627
34.060 20.344 114.071
36.010 21.311 110.305
38.080 22.283 106.307
40.260 23.250 102.099
42.560 24.216 97.661
45.000 25.186 92.955
47.580 26.156 87.981
50.310 27.127 82.721
53.190 28.096 77.175
56.230 29.065 71.324
59.460 30.038 65.112
62.860 31.009 58.577
66.460 31.982 51.662
70.270 32.958 44.349
74.300 33.935 36.620
78.550 34.913 28.475
83.050 35.894 19.858
87.810 36.879 10.748
92.840 37.867 1.128
98.160 38.861 -9.041
103.780 39.859 -19.779
109.730 40.865 -31.146
116.020 41.878 -43.164
122.660 42.899 -55.857
129.690 43.932 -69.306
137.120 44.977 -83.539
144.970 46.034 -98.607
153.280 47.106 -114.598
162.060 48.194 -131.548
171.340 49.298 -149.536
181.160 50.420 -168.659
191.540 51.559 171.019
202.510 52.712 149.414
214.110 53.879 126.424
226.380 55.056 101.949
239.350 56.240 75.912
253.060 57.426 48.223
267.560 58.607 18.780
282.890 59.780 -12.485
299.090 60.937 -45.630
316.230 62.077 -80.760
334.340 63.195 -117.886
353.500 64.295 -157.113
373.750 65.379 161.538
395.160 66.459 117.973
417.800 67.549 72.070
441.730 68.667 23.673
467.040 69.831 -27.507
493.800 71.050 -81.800
522.090 72.316 -139.600
552.000 73.597 158.715
583.620 74.849 92.908
617.050 76.027 22.896
652.400 77.105 -51.291
689.780 78.082 -129.592
729.290 78.977 148.014
771.080 79.821 61.319
815.250 80.644 -29.923
861.950 81.457 -126.160
911.330 82.252 132.214
963.540 83.022 24.940
1018.740 83.794 -88.319
1077.110 84.582 151.726
1138.810 85.318 24.305
1204.050 85.885 -110.760
1273.030 86.253 106.921
1345.960 86.482 -42.659
1423.070 86.610 160.052
1504.590 86.630 -5.239
1590.790 86.587 -178.640
1681.920 86.605 -0.547
1778.280 86.786 167.591
1880.150 87.034 -35.743
1987.870 87.244 109.108
2101.750 87.463 -118.204
2222.150 87.686 1.140
2349.460 87.809 106.142
2484.060 87.752 -163.271
2626.360 87.565 -87.104
2776.820 87.401 -26.389
2935.900 87.219 16.648
3104.100 86.790 41.534
3281.930 86.202 48.316
3469.940 85.399 35.222
3668.730 84.171 3.238
3878.910 82.901 -46.143
4101.130 82.317 -116.149
4336.070 82.132 148.115
4584.480 82.277 24.244
4847.120 82.348 -127.821
5124.810 82.565 48.613
5418.400 82.529 -166.198
5728.810 82.508 -51.078
6057.010 83.176 28.174
6404.000 83.847 67.008
6770.880 84.538 65.920
7158.770 84.637 19.658
7568.890 84.405 -68.167
8002.500 84.115 160.879
8460.950 84.065 -20.464
8945.670 83.901 106.266
9458.160 83.229 178.646
10000.000 82.667 -164.368
