# Freq(Hz) SPL(dB) Phase (degrees)
10.000 -2.812 156.174
10.570 -1.850 154.816
11.180 -0.875 153.363
11.820 0.092 151.838
12.500 1.063 150.218
13.210 2.023 148.527
13.970 2.994 146.716
14.770 3.961 144.810
15.620 4.933 142.785
16.510 5.895 140.665
17.460 6.866 138.402
18.460 7.833 136.020
19.510 8.794 133.519
20.630 9.763 130.851
21.810 10.728 128.040
23.060 11.696 125.062
24.380 12.662 121.918
25.780 13.631 118.583
27.260 14.599 115.057
28.820 15.565 111.342
30.470 16.530 107.411
32.220 17.499 103.243
34.060 18.462 98.861
36.010 19.427 94.216
38.080 20.396 89.287
40.260 21.361 84.095
42.560 22.323 78.617
45.000 23.288 72.807
47.580 24.253 66.664
50.310 25.219 60.163
53.190 26.182 53.306
56.230 27.143 46.069
59.460 28.108 38.379
62.860 29.068 30.286
66.460 30.029 21.717
70.270 30.991 12.649
74.300 31.952 3.058
78.550 32.909 -7.055
83.050 33.867 -17.762
87.810 34.825 -29.086
92.840 35.781 -41.052
98.160 36.736 -53.706
103.780 37.689 -67.073
109.730 38.642 -81.222
116.020 39.593 -96.179
122.660 40.540 -111.967
129.690 41.487 -128.681
137.120 42.431 -146.344
144.970 43.372 -165.005
153.280 44.311 175.242
162.060 45.245 154.373
171.340 46.175 132.317
181.160 47.101 108.980
191.540 48.021 84.315
202.510 48.933 58.254
214.110 49.837 30.705
226.380 50.731 1.581
239.350 51.614 -29.181
253.060 52.484 -61.662
267.560 53.339 -95.962
282.890 54.179 -132.152
299.090 55.001 -170.295
316.230 55.809 149.479
334.340 56.604 107.141
353.500 57.391 62.544
373.750 58.180 15.631
395.160 58.980 -33.742
417.800 59.809 -85.749
441.730 60.680 -140.581
467.040 61.608 161.447
493.800 62.599 100.018
522.090 63.650 34.779
552.000 64.745 -34.623
583.620 65.864 -108.479
617.050 66.988 172.952
652.400 68.103 89.402
689.780 69.196 0.580
729.290 70.250 -93.809
771.080 71.234 165.827
815.250 72.106 59.272
861.950 72.817 -53.655
911.330 73.328 -172.986
963.540 73.628 61.432
1018.740 73.720 -70.411
1077.110 73.645 151.628
1138.810 73.494 7.557
1204.050 73.397 -143.214
1273.030 73.418 58.060
1345.960 73.518 -109.713
1423.070 73.607 72.648
1504.590 73.622 -114.994
1590.790 73.553 47.276
1681.920 73.476 -160.561
1778.280 73.562 -19.212
1880.150 73.993 109.438
1987.870 74.594 -138.081
2101.750 74.973 -42.867
2222.150 74.762 35.956
2349.460 73.831 100.457
2484.060 72.426 153.526
2626.360 71.449 -164.382
2776.820 71.480 -141.514
2935.900 71.532 -142.752
3104.100 71.232 -165.245
3281.930 70.942 151.462
3469.940 70.724 82.473
3668.730 69.661 -12.915
3878.910 67.393 -126.491
4101.130 66.908 106.490
4336.070 68.157 -65.600
4584.480 67.078 84.505
4847.120 65.583 -144.031
5124.810 65.413 -51.054
5418.400 64.098 14.509
5728.810 65.176 25.654
6057.010 61.708 -10.407
6404.000 58.445 -63.668
6770.880 56.661 -158.175
7158.770 55.040 53.397
7568.890 57.432 -143.354
8002.500 51.408 53.023
8460.950 53.619 17.712
8945.670 49.401 43.971
9458.160 38.707 -1.189
10000.000 50.489 -160.712
