# Freq(Hz) SPL(dB) Phase (degrees)
10.000 -1.994 158.249
10.570 -1.031 157.009
11.180 -0.057 155.683
11.820 0.910 154.291
12.500 1.881 152.812
13.210 2.840 151.268
13.970 3.812 149.616
14.770 4.778 147.876
15.620 5.750 146.028
16.510 6.712 144.093
17.460 7.683 142.028
18.460 8.649 139.854
19.510 9.609 137.571
20.630 10.578 135.137
21.810 11.543 132.572
23.060 12.510 129.855
24.380 13.475 126.987
25.780 14.443 123.944
27.260 15.411 120.729
28.820 16.375 117.339
30.470 17.340 113.755
32.220 18.308 109.954
34.060 19.269 105.958
36.010 20.233 101.725
38.080 21.200 97.231
40.260 22.163 92.500
42.560 23.124 87.510
45.000 24.087 82.217
47.580 25.050 76.622
50.310 26.013 70.704
53.190 26.974 64.464
56.230 27.932 57.879
59.460 28.894 50.886
62.860 29.851 43.529
66.460 30.809 35.743
70.270 31.767 27.508
74.300 32.724 18.804
78.550 33.678 9.630
83.050 34.633 -0.075
87.810 35.587 -10.332
92.840 36.540 -21.161
98.160 37.492 -32.603
103.780 38.443 -44.678
109.730 39.395 -57.447
116.020 40.347 -70.930
122.660 41.297 -85.147
129.690 42.249 -100.179
137.120 43.203 -116.047
144.970 44.157 -132.790
153.280 45.116 -150.493
162.060 46.078 -169.174
171.340 47.045 171.101
181.160 48.019 150.248
191.540 49.002 128.220
202.510 49.995 104.950
214.110 51.001 80.345
226.380 52.022 54.310
239.350 53.060 26.766
253.060 54.117 -2.391
267.560 55.197 -33.292
282.890 56.300 -66.050
299.090 57.428 -100.789
316.230 58.582 -137.700
334.340 59.763 -176.898
353.500 60.968 141.385
373.750 62.195 96.995
395.160 63.435 49.701
417.800 64.680 -0.732
441.730 65.910 -54.512
467.040 67.101 -111.895
493.800 68.220 -173.034
522.090 69.228 121.983
552.000 70.089 53.172
583.620 70.777 -19.319
617.050 71.295 -95.289
652.400 71.673 -174.573
689.780 71.969 102.876
729.290 72.256 16.936
771.080 72.612 -72.869
815.250 73.094 -167.156
861.950 73.724 93.176
911.330 74.466 -12.773
963.540 75.242 -125.748
1018.740 75.948 114.013
1077.110 76.510 -13.509
1138.810 76.904 -148.054
1204.050 77.158 70.465
1273.030 77.342 -78.006
1345.960 77.557 126.084
1423.070 77.874 -38.270
1504.590 78.287 147.750
1590.790 78.733 -36.913
1681.920 79.084 126.982
1778.280 79.190 -80.498
1880.150 79.090 61.575
1987.870 78.987 -167.161
2101.750 79.048 -48.122
2222.150 79.238 56.161
2349.460 79.254 144.817
2484.060 78.942 -141.014
2626.360 78.698 -80.893
2776.820 78.667 -37.855
2935.900 78.569 -13.818
3104.100 78.327 -7.548
3281.930 78.456 -20.179
3469.940 78.801 -57.313
3668.730 78.722 -118.882
3878.910 78.336 157.148
4101.130 77.913 49.071
4336.070 77.446 -83.342
4584.480 77.638 115.890
4847.120 77.592 -78.913
5124.810 77.245 55.561
5418.400 76.634 156.421
5728.810 75.940 -134.453
6057.010 75.792 -103.617
6404.000 75.196 -113.554
6770.880 74.506 -166.050
7158.770 73.661 98.172
7568.890 72.828 -42.068
8002.500 71.721 125.897
8460.950 70.586 -118.128
8945.670 68.772 -57.464
9458.160 67.321 -51.636
10000.000 65.055 -110.721
