# Freq(Hz) SPL(dB) Phase (degrees)
10.000 -1.890 158.497
10.570 -0.928 157.272
11.180 0.047 155.960
11.820 1.013 154.585
12.500 1.985 153.123
13.210 2.944 151.597
13.970 3.915 149.963
14.770 4.882 148.244
15.620 5.853 146.417
16.510 6.815 144.504
17.460 7.786 142.462
18.460 8.753 140.313
19.510 9.713 138.057
20.630 10.682 135.650
21.810 11.647 133.115
23.060 12.613 130.429
24.380 13.579 127.593
25.780 14.547 124.586
27.260 15.515 121.407
28.820 16.480 118.057
30.470 17.444 114.514
32.220 18.412 110.757
34.060 19.374 106.808
36.010 20.338 102.623
38.080 21.305 98.182
40.260 22.268 93.506
42.560 23.229 88.574
45.000 24.193 83.343
47.580 25.156 77.814
50.310 26.120 71.966
53.190 27.080 65.799
56.230 28.039 59.292
59.460 29.002 52.382
62.860 29.959 45.112
66.460 30.918 37.420
70.270 31.877 29.284
74.300 32.835 20.685
78.550 33.790 11.623
83.050 34.746 2.036
87.810 35.702 -8.095
92.840 36.657 -18.791
98.160 37.612 -30.091
103.780 38.566 -42.015
109.730 39.521 -54.625
116.020 40.477 -67.939
122.660 41.433 -81.977
129.690 42.391 -96.821
137.120 43.351 -112.490
144.970 44.315 -129.025
153.280 45.283 -146.510
162.060 46.257 -164.966
171.340 47.238 175.542
181.160 48.229 154.927
191.540 49.230 133.140
202.510 50.243 110.110
214.110 51.272 85.741
226.380 52.318 59.934
239.350 53.383 32.604
253.060 54.468 3.644
267.560 55.576 -27.079
282.890 56.705 -59.685
299.090 57.856 -94.292
316.230 59.030 -131.091
334.340 60.222 -170.189
353.500 61.432 148.191
373.750 62.654 103.907
395.160 63.879 56.747
417.800 65.098 6.494
441.730 66.291 -47.040
467.040 67.436 -104.084
493.800 68.500 -164.768
522.090 69.446 130.853
552.000 70.243 62.830
583.620 70.874 -8.656
617.050 71.353 -83.377
652.400 71.728 -161.181
689.780 72.078 117.893
729.290 72.493 33.514
771.080 73.041 -55.085
815.250 73.740 -148.767
861.950 74.545 111.573
911.330 75.376 5.336
963.540 76.146 -107.801
1018.740 76.790 132.217
1077.110 77.277 5.461
1138.810 77.629 -127.928
1204.050 77.889 91.901
1273.030 78.118 -55.348
1345.960 78.383 149.741
1423.070 78.718 -13.755
1504.590 79.098 173.255
1590.790 79.477 -10.054
1681.920 79.759 155.777
1778.280 79.869 -49.094
1880.150 79.932 95.649
1987.870 80.112 -131.337
2101.750 80.396 -11.953
2222.150 80.543 92.392
2349.460 80.374 -177.407
2484.060 80.041 -100.373
2626.360 79.869 -38.273
2776.820 79.742 6.892
2935.900 79.633 34.942
3104.100 79.783 44.352
3281.930 80.074 31.739
3469.940 80.158 -3.359
3668.730 80.054 -60.808
3878.910 79.787 -141.747
4101.130 79.361 113.781
4336.070 79.227 -15.827
4584.480 79.078 -175.183
4847.120 79.031 -3.269
5124.810 78.959 134.415
5418.400 78.324 -120.729
5728.810 77.589 -48.425
6057.010 77.250 -11.538
6404.000 77.004 -16.856
6770.880 76.283 -64.581
7158.770 75.353 -153.168
7568.890 74.284 69.805
8002.500 73.542 -114.580
8460.950 72.435 7.523
8945.670 70.859 77.345
9458.160 68.986 87.689
10000.000 67.241 38.526
