# Freq(Hz) SPL(dB) Phase (degrees)
10.000 -1.684 158.982
10.570 -0.721 157.784
11.180 0.253 156.503
11.820 1.220 155.158
12.500 2.191 153.729
13.210 3.150 152.238
13.970 4.122 150.641
14.770 5.088 148.960
15.620 6.060 147.175
16.510 7.022 145.305
17.460 7.993 143.310
18.460 8.960 141.209
19.510 9.920 139.004
20.630 10.889 136.652
21.810 11.854 134.174
23.060 12.821 131.549
24.380 13.786 128.778
25.780 14.755 125.839
27.260 15.723 122.733
28.820 16.688 119.459
30.470 17.653 115.997
32.220 18.621 112.326
34.060 19.583 108.467
36.010 20.548 104.378
38.080 21.516 100.038
40.260 22.479 95.470
42.560 23.441 90.651
45.000 24.405 85.541
47.580 25.369 80.140
50.310 26.334 74.427
53.190 27.296 68.403
56.230 28.256 62.048
59.460 29.220 55.300
62.860 30.179 48.200
66.460 31.140 40.689
70.270 32.101 32.745
74.300 33.062 24.350
78.550 34.021 15.503
83.050 34.981 6.145
87.810 35.941 -3.743
92.840 36.902 -14.182
98.160 37.863 -25.210
103.780 38.824 -36.847
109.730 39.788 -49.153
116.020 40.754 -62.146
122.660 41.722 -75.848
129.690 42.694 -90.338
137.120 43.671 -105.637
144.970 44.653 -121.789
153.280 45.644 -138.876
162.060 46.644 -156.924
171.340 47.654 -176.000
181.160 48.677 163.803
191.540 49.715 142.433
202.510 50.768 119.811
214.110 51.840 95.837
226.380 52.931 70.403
239.350 54.041 43.421
253.060 55.170 14.779
267.560 56.318 -15.658
282.890 57.482 -48.003
299.090 58.660 -82.372
316.230 59.850 -118.939
334.340 61.045 -157.797
353.500 62.243 160.856
373.750 63.436 116.908
395.160 64.617 70.177
417.800 65.774 20.484
441.730 66.892 -32.316
467.040 67.950 -88.408
493.800 68.922 -147.867
522.090 69.783 149.303
552.000 70.515 83.197
583.620 71.128 14.002
617.050 71.663 -58.137
652.400 72.201 -133.297
689.780 72.825 148.085
729.290 73.589 65.247
771.080 74.478 -22.785
815.250 75.421 -116.670
861.950 76.326 143.218
911.330 77.122 36.844
963.540 77.770 -75.706
1018.740 78.280 165.734
1077.110 78.689 41.078
1138.810 79.050 -89.963
1204.050 79.385 132.030
1273.030 79.689 -13.397
1345.960 79.973 -166.604
1423.070 80.259 31.935
1504.590 80.569 -138.310
1590.790 80.931 41.869
1681.920 81.328 -148.322
1778.280 81.741 10.402
1880.150 82.153 157.215
1987.870 82.482 -68.791
2101.750 82.635 52.107
2222.150 82.563 160.197
2349.460 82.443 -104.654
2484.060 82.353 -23.910
2626.360 82.216 41.465
2776.820 82.155 91.147
2935.900 82.261 122.811
3104.100 82.288 135.245
3281.930 82.393 128.949
3469.940 82.738 100.101
3668.730 82.873 47.221
3878.910 82.679 -29.126
4101.130 82.238 -128.732
4336.070 81.858 108.025
4584.480 81.865 -43.322
4847.120 81.803 134.964
5124.810 81.737 -78.564
5418.400 81.297 33.539
5728.810 80.557 113.345
6057.010 80.062 159.513
6404.000 80.017 164.942
6770.880 79.360 127.040
7158.770 78.489 46.872
7568.890 77.564 -75.290
8002.500 76.469 112.417
8460.950 75.852 -113.432
8945.670 74.108 -30.278
9458.160 72.658 -1.950
10000.000 71.160 -41.333
