# Freq(Hz) SPL(dB) Phase (degrees)
10.000 -2.739 156.369
10.570 -1.776 155.022
11.180 -0.801 153.581
11.820 0.165 152.069
12.500 1.137 150.462
13.210 2.096 148.785
13.970 3.068 146.989
14.770 4.034 145.099
15.620 5.006 143.091
16.510 5.968 140.988
17.460 6.940 138.743
18.460 7.906 136.381
19.510 8.867 133.900
20.630 9.836 131.254
21.810 10.801 128.466
23.060 11.768 125.513
24.380 12.734 122.395
25.780 13.703 119.087
27.260 14.671 115.591
28.820 15.637 111.906
30.470 16.602 108.008
32.220 17.570 103.874
34.060 18.533 99.528
36.010 19.498 94.922
38.080 20.466 90.034
40.260 21.431 84.885
42.560 22.392 79.453
45.000 23.357 73.692
47.580 24.322 67.599
50.310 25.287 61.154
53.190 26.249 54.354
56.230 27.209 47.178
59.460 28.173 39.554
62.860 29.133 31.529
66.460 30.093 23.034
70.270 31.053 14.044
74.300 32.012 4.536
78.550 32.969 -5.489
83.050 33.925 -16.103
87.810 34.881 -27.328
92.840 35.835 -39.187
98.160 36.788 -51.728
103.780 37.739 -64.973
109.730 38.689 -78.994
116.020 39.637 -93.813
122.660 40.581 -109.452
129.690 41.525 -126.007
137.120 42.465 -143.501
144.970 43.402 -161.978
153.280 44.337 178.466
162.060 45.267 157.809
171.340 46.192 135.983
181.160 47.113 112.894
191.540 48.028 88.499
202.510 48.935 62.730
214.110 49.834 35.501
226.380 50.725 6.725
239.350 51.604 -23.656
253.060 52.472 -55.719
267.560 53.328 -89.562
282.890 54.170 -125.249
299.090 55.001 -162.842
316.230 55.823 157.533
334.340 56.641 115.846
353.500 57.464 71.944
373.750 58.303 25.754
395.160 59.173 -22.895
417.800 60.092 -74.220
441.730 61.075 -128.472
467.040 62.131 173.970
493.800 63.257 112.734
522.090 64.433 47.445
552.000 65.630 -22.222
583.620 66.813 -96.486
617.050 67.959 -175.510
652.400 69.053 100.538
689.780 70.088 11.444
729.290 71.055 -83.042
771.080 71.929 176.698
815.250 72.672 70.470
861.950 73.239 -41.875
911.330 73.599 -160.322
963.540 73.751 75.325
1018.740 73.719 -54.920
1077.110 73.569 168.999
1138.810 73.406 26.852
1204.050 73.335 -122.230
1273.030 73.368 80.514
1345.960 73.439 -85.731
1423.070 73.474 98.606
1504.590 73.476 -86.443
1590.790 73.535 78.855
1681.920 73.793 -126.509
1778.280 74.311 15.410
1880.150 74.979 142.440
1987.870 75.392 -107.278
2101.750 75.155 -12.916
2222.150 74.038 68.102
2349.460 72.220 139.629
2484.060 70.795 -155.346
2626.360 71.081 -106.413
2776.820 71.850 -84.433
2935.900 71.966 -85.686
3104.100 71.611 -107.038
3281.930 71.008 -149.483
3469.940 69.932 145.566
3668.730 68.174 64.468
3878.910 68.579 -34.043
4101.130 70.121 -178.777
4336.070 68.725 0.572
4584.480 65.756 170.606
4847.120 66.125 -49.448
5124.810 65.342 49.347
5418.400 65.624 111.205
5728.810 61.545 122.865
6057.010 61.514 138.154
6404.000 60.317 73.117
6770.880 60.017 -8.953
7158.770 58.218 172.785
7568.890 55.870 -13.240
8002.500 57.890 133.954
8460.950 59.406 -170.280
8945.670 57.127 168.410
9458.160 56.158 138.398
10000.000 53.172 2.101
