# Freq(Hz) SPL(dB) Phase (degrees)
10.000 -3.166 155.213
10.570 -2.203 153.800
11.180 -1.228 152.288
11.820 -0.261 150.702
12.500 0.711 149.017
13.210 1.671 147.257
13.970 2.642 145.373
14.770 3.610 143.391
15.620 4.582 141.284
16.510 5.545 139.078
17.460 6.517 136.723
18.460 7.484 134.245
19.510 8.445 131.642
20.630 9.415 128.867
21.810 10.381 125.942
23.060 11.350 122.844
24.380 12.317 119.572
25.780 13.287 116.102
27.260 14.257 112.434
28.820 15.224 108.567
30.470 16.191 104.478
32.220 17.161 100.140
34.060 18.126 95.580
36.010 19.094 90.746
38.080 20.065 85.616
40.260 21.033 80.212
42.560 21.998 74.511
45.000 22.967 68.463
47.580 23.936 62.068
50.310 24.906 55.301
53.190 25.874 48.162
56.230 26.840 40.627
59.460 27.812 32.620
62.860 28.779 24.192
66.460 29.748 15.267
70.270 30.718 5.821
74.300 31.688 -4.170
78.550 32.656 -14.708
83.050 33.626 -25.866
87.810 34.597 -37.671
92.840 35.568 -50.146
98.160 36.539 -63.342
103.780 37.511 -77.285
109.730 38.484 -92.050
116.020 39.457 -107.662
122.660 40.430 -124.148
129.690 41.404 -141.607
137.120 42.379 -160.067
144.970 43.354 -179.580
153.280 44.331 159.754
162.060 45.308 137.906
171.340 46.285 114.798
181.160 47.262 90.328
191.540 48.239 64.443
202.510 49.215 37.064
214.110 50.189 8.087
226.380 51.160 -22.589
239.350 52.128 -55.041
253.060 53.090 -89.370
267.560 54.045 -125.699
282.890 54.992 -164.125
299.090 55.930 155.257
316.230 56.857 112.280
334.340 57.774 66.873
353.500 58.680 18.838
373.750 59.575 -31.928
395.160 60.459 -85.613
417.800 61.331 -142.417
441.730 62.186 157.477
467.040 63.013 93.812
493.800 63.796 26.407
522.090 64.515 -44.881
552.000 65.150 -120.127
583.620 65.694 160.691
617.050 66.162 77.605
652.400 66.598 -9.463
689.780 67.057 -100.785
729.290 67.586 163.182
771.080 68.206 61.739
815.250 68.914 -45.684
861.950 69.694 -159.736
911.330 70.522 78.952
963.540 71.352 -50.279
1018.740 72.123 171.915
1077.110 72.719 24.976
1138.810 73.001 -131.081
1204.050 72.878 64.214
1273.030 72.362 -108.577
1345.960 71.492 70.800
1423.070 70.346 -117.249
1504.590 69.055 47.660
1590.790 67.913 -154.333
1681.920 67.372 -4.889
1778.280 67.724 131.255
1880.150 68.375 -110.962
1987.870 68.704 -11.885
2101.750 68.248 70.898
2222.150 66.997 139.726
2349.460 64.936 -162.411
2484.060 62.681 -109.722
2626.360 63.132 -63.760
2776.820 65.898 -53.670
2935.900 67.693 -77.390
3104.100 68.244 -127.110
3281.930 67.426 161.632
3469.940 65.700 76.900
3668.730 65.906 -25.053
3878.910 67.275 -165.797
4101.130 67.630 12.358
4336.070 65.958 164.220
4584.480 63.235 -66.025
4847.120 62.837 39.841
5124.810 62.911 88.380
5418.400 61.138 93.897
5728.810 56.126 65.672
6057.010 56.338 25.144
6404.000 54.906 -120.158
6770.880 51.782 30.948
7158.770 46.516 -120.533
7568.890 51.735 -71.104
8002.500 55.621 -48.213
8460.950 54.032 -64.199
8945.670 60.902 -114.417
9458.160 53.034 124.220
10000.000 55.022 -97.780
