# Freq(Hz) SPL(dB) Phase (degrees)
10.000 -0.817 160.900
10.570 0.146 159.811
11.180 1.121 158.647
11.820 2.088 157.425
12.500 3.060 156.126
13.210 4.020 154.771
13.970 4.992 153.320
14.770 5.959 151.793
15.620 6.931 150.170
16.510 7.894 148.472
17.460 8.866 146.659
18.460 9.834 144.750
19.510 10.795 142.747
20.630 11.765 140.610
21.810 12.731 138.359
23.060 13.700 135.974
24.380 14.667 133.457
25.780 15.638 130.787
27.260 16.608 127.965
28.820 17.575 124.992
30.470 18.543 121.847
32.220 19.514 118.513
34.060 20.479 115.008
36.010 21.448 111.295
38.080 22.420 107.355
40.260 23.389 103.206
42.560 24.356 98.831
45.000 25.326 94.192
47.580 26.298 89.289
50.310 27.270 84.104
53.190 28.241 78.636
56.230 29.212 72.868
59.460 30.188 66.743
62.860 31.161 60.300
66.460 32.137 53.482
70.270 33.115 46.272
74.300 34.097 38.650
78.550 35.078 30.618
83.050 36.064 22.118
87.810 37.054 13.132
92.840 38.048 3.641
98.160 39.048 -6.395
103.780 40.054 -16.995
109.730 41.068 -28.219
116.020 42.090 -40.090
122.660 43.121 -52.633
129.690 44.165 -65.929
137.120 45.221 -80.009
144.970 46.290 -94.922
153.280 47.375 -110.759
162.060 48.476 -127.557
171.340 49.593 -145.393
181.160 50.728 -164.367
191.540 51.878 175.459
202.510 53.041 154.003
214.110 54.217 131.167
226.380 55.400 106.852
239.350 56.587 80.987
253.060 57.773 53.490
267.560 58.951 24.268
282.890 60.118 -6.739
299.090 61.266 -39.575
316.230 62.396 -74.333
334.340 63.506 -111.011
353.500 64.602 -149.702
373.750 65.693 169.575
395.160 66.795 126.713
417.800 67.931 81.553
441.730 69.122 33.871
467.040 70.385 -16.717
493.800 71.719 -70.632
522.090 73.094 -128.313
552.000 74.458 169.910
583.620 75.751 103.920
617.050 76.926 33.797
652.400 77.968 -40.284
689.780 78.895 -118.163
729.290 79.756 160.199
771.080 80.609 74.489
815.250 81.499 -15.770
861.950 82.419 -111.259
911.330 83.327 147.552
963.540 84.192 40.509
1018.740 85.038 -72.614
1077.110 85.880 167.488
1138.810 86.643 40.097
1204.050 87.214 -94.835
1273.030 87.591 123.060
1345.960 87.839 -26.398
1423.070 87.980 176.204
1504.590 87.988 10.455
1590.790 87.850 -163.926
1681.920 87.586 13.021
1778.280 87.279 -179.073
1880.150 86.990 -20.917
1987.870 86.821 126.358
2101.750 86.685 -99.210
2222.150 86.338 22.412
2349.460 85.851 131.653
2484.060 85.280 -132.088
2626.360 84.727 -48.495
2776.820 84.540 20.389
2935.900 84.671 71.538
3104.100 84.766 102.001
3281.930 84.318 113.781
3469.940 83.774 110.337
3668.730 83.984 88.111
3878.910 84.750 38.260
4101.130 84.790 -38.340
4336.070 84.296 -137.116
4584.480 84.084 100.559
4847.120 84.067 -50.608
5124.810 83.257 129.738
5418.400 83.312 -73.134
5728.810 84.220 46.448
6057.010 84.718 127.595
6404.000 85.707 172.407
6770.880 86.198 173.503
7158.770 86.145 135.201
7568.890 86.078 50.834
8002.500 85.630 -72.770
8460.950 85.505 114.889
8945.670 85.401 -108.175
9458.160 85.410 -25.299
10000.000 85.129 -1.266
