# Freq(Hz) SPL(dB) Phase (degrees)
10.000 -1.583 159.215
10.570 -0.621 158.031
11.180 0.354 156.763
11.820 1.321 155.434
12.500 2.292 154.021
13.210 3.251 152.546
13.970 4.223 150.967
14.770 5.189 149.305
15.620 6.161 147.539
16.510 7.123 145.690
17.460 8.094 143.717
18.460 9.061 141.640
19.510 10.021 139.459
20.630 10.990 137.133
21.810 11.955 134.683
23.060 12.922 132.088
24.380 13.888 129.347
25.780 14.857 126.441
27.260 15.825 123.369
28.820 16.790 120.132
30.470 17.755 116.709
32.220 18.724 113.079
34.060 19.686 109.263
36.010 20.651 105.220
38.080 21.619 100.929
40.260 22.583 96.412
42.560 23.545 91.648
45.000 24.510 86.595
47.580 25.475 81.255
50.310 26.440 75.607
53.190 27.402 69.652
56.230 28.363 63.370
59.460 29.328 56.698
62.860 30.289 49.681
66.460 31.251 42.255
70.270 32.214 34.403
74.300 33.177 26.104
78.550 34.137 17.361
83.050 35.099 8.111
87.810 36.063 -1.663
92.840 37.026 -11.980
98.160 37.991 -22.880
103.780 38.956 -34.382
109.730 39.925 -46.546
116.020 40.897 -59.391
122.660 41.871 -72.936
129.690 42.851 -87.264
137.120 43.837 -102.395
144.970 44.829 -118.373
153.280 45.832 -135.282
162.060 46.844 -153.149
171.340 47.868 -172.044
181.160 48.908 167.940
191.540 49.962 146.747
202.510 51.034 124.297
214.110 52.124 100.487
226.380 53.233 75.207
239.350 54.361 48.369
253.060 55.506 19.861
267.560 56.668 -10.450
282.890 57.842 -42.675
299.090 59.026 -76.921
316.230 60.215 -113.357
334.340 61.404 -152.064
353.500 62.590 166.772
373.750 63.764 123.052
395.160 64.919 76.612
417.800 66.046 27.290
441.730 67.131 -25.040
467.040 68.157 -80.539
493.800 69.103 -139.267
522.090 69.950 158.786
552.000 70.694 93.702
583.620 71.354 25.610
617.050 71.984 -45.468
652.400 72.658 -119.790
689.780 73.437 162.052
729.290 74.335 79.275
771.080 75.306 -8.938
815.250 76.270 -103.008
861.950 77.146 156.889
911.330 77.885 50.838
963.540 78.473 -61.040
1018.740 78.949 -178.647
1077.110 79.363 57.780
1138.810 79.764 -72.259
1204.050 80.144 150.554
1273.030 80.469 5.865
1345.960 80.746 -146.484
1423.070 81.019 53.179
1504.590 81.343 -115.717
1590.790 81.756 65.868
1681.920 82.242 -123.097
1778.280 82.731 36.464
1880.150 83.136 -175.971
1987.870 83.397 -40.643
2101.750 83.524 82.292
2222.150 83.560 -167.445
2349.460 83.595 -71.001
2484.060 83.544 10.628
2626.360 83.399 77.384
2776.820 83.307 128.406
2935.900 83.264 162.090
3104.100 83.305 178.017
3281.930 83.637 173.734
3469.940 83.929 146.363
3668.730 84.030 96.246
3878.910 83.870 22.589
4101.130 83.496 -74.210
4336.070 83.173 164.246
4584.480 82.870 16.057
4847.120 82.911 -160.938
5124.810 83.066 -11.281
5418.400 82.530 104.301
5728.810 81.730 -171.591
6057.010 81.224 -122.491
6404.000 80.923 -111.696
6770.880 80.545 -143.407
7158.770 79.561 140.518
7568.890 78.662 22.546
8002.500 78.286 -143.250
8460.950 77.047 -3.675
8945.670 75.572 86.332
9458.160 74.808 117.619
10000.000 72.651 90.345
