# Freq(Hz) SPL(dB) Phase (degrees)
10.000 -3.045 155.546
10.570 -2.082 154.152
11.180 -1.107 152.661
11.820 -0.140 151.096
12.500 0.831 149.433
13.210 1.791 147.697
13.970 2.762 145.839
14.770 3.730 143.883
15.620 4.702 141.804
16.510 5.664 139.628
17.460 6.636 137.305
18.460 7.603 134.860
19.510 8.564 132.293
20.630 9.534 129.554
21.810 10.500 126.669
23.060 11.467 123.612
24.380 12.434 120.385
25.780 13.404 116.962
27.260 14.373 113.343
28.820 15.339 109.528
30.470 16.306 105.494
32.220 17.276 101.215
34.060 18.240 96.716
36.010 19.207 91.948
38.080 20.177 86.887
40.260 21.143 81.556
42.560 22.108 75.933
45.000 23.075 69.967
47.580 24.043 63.658
50.310 25.011 56.983
53.190 25.976 49.942
56.230 26.941 42.509
59.460 27.909 34.611
62.860 28.874 26.298
66.460 29.839 17.495
70.270 30.806 8.179
74.300 31.773 -1.675
78.550 32.737 -12.067
83.050 33.702 -23.071
87.810 34.667 -34.712
92.840 35.632 -47.014
98.160 36.597 -60.026
103.780 37.560 -73.773
109.730 38.525 -88.330
116.020 39.489 -103.721
122.660 40.451 -119.971
129.690 41.414 -137.181
137.120 42.376 -155.375
144.970 43.337 -174.604
153.280 44.298 165.032
162.060 45.256 143.507
171.340 46.213 120.745
181.160 47.168 96.644
191.540 48.120 71.154
202.510 49.067 44.199
214.110 50.009 15.678
226.380 50.945 -14.506
239.350 51.872 -46.428
253.060 52.789 -80.182
267.560 53.694 -115.887
282.890 54.585 -153.630
299.090 55.459 166.501
316.230 56.316 124.348
334.340 57.153 79.856
353.500 57.971 32.845
373.750 58.768 -16.769
395.160 59.545 -69.149
417.800 60.301 -124.460
441.730 61.032 177.151
467.040 61.733 115.473
493.800 62.394 50.374
522.090 63.005 -18.244
552.000 63.562 -90.426
583.620 64.081 -166.167
617.050 64.605 114.460
652.400 65.194 31.154
689.780 65.901 -56.656
729.290 66.742 -149.703
771.080 67.693 111.168
815.250 68.694 5.379
861.950 69.672 -107.561
911.330 70.554 132.036
963.540 71.266 4.052
1018.740 71.750 -131.673
1077.110 71.919 85.048
1138.810 71.732 -65.047
1204.050 71.276 139.052
1273.030 70.827 -22.297
1345.960 70.693 169.893
1423.070 71.093 -7.106
1504.590 71.912 163.990
1590.790 72.916 -38.629
1681.920 73.833 104.497
1778.280 74.490 -126.676
1880.150 74.802 -11.413
1987.870 74.742 89.800
2101.750 74.305 177.759
2222.150 73.589 -107.465
2349.460 72.785 -46.349
2484.060 72.041 0.250
2626.360 71.540 30.403
2776.820 71.224 42.095
2935.900 71.143 34.754
3104.100 71.509 5.757
3281.930 72.164 -49.265
3469.940 72.519 -130.267
3668.730 72.432 122.350
3878.910 72.386 -10.477
4101.130 72.188 -174.174
4336.070 71.146 -8.068
4584.480 69.354 131.858
4847.120 68.204 -112.798
5124.810 68.159 -35.903
5418.400 67.212 5.151
5728.810 67.187 3.562
6057.010 66.928 -41.337
6404.000 67.659 -136.881
6770.880 65.410 93.673
7158.770 63.028 -96.979
7568.890 62.032 34.956
8002.500 60.759 114.079
8460.950 61.134 118.970
8945.670 56.078 87.056
9458.160 53.878 -13.276
10000.000 50.646 167.696
