# Freq(Hz) SPL(dB) Phase (degrees)
10.000 -3.120 155.339
10.570 -2.157 153.934
11.180 -1.182 152.430
11.820 -0.215 150.851
12.500 0.756 149.175
13.210 1.716 147.424
13.970 2.688 145.550
14.770 3.655 143.577
15.620 4.627 141.481
16.510 5.590 139.287
17.460 6.562 136.944
18.460 7.529 134.478
19.510 8.490 131.889
20.630 9.460 129.127
21.810 10.426 126.218
23.060 11.394 123.135
24.380 12.361 119.880
25.780 13.331 116.428
27.260 14.301 112.779
28.820 15.267 108.932
30.470 16.234 104.863
32.220 17.205 100.548
34.060 18.169 96.011
36.010 19.136 91.202
38.080 20.107 86.098
40.260 21.074 80.722
42.560 22.039 75.050
45.000 23.008 69.034
47.580 23.976 62.671
50.310 24.945 55.939
53.190 25.912 48.837
56.230 26.878 41.340
59.460 27.848 33.375
62.860 28.814 24.990
66.460 29.782 16.112
70.270 30.750 6.715
74.300 31.719 -3.225
78.550 32.686 -13.707
83.050 33.654 -24.808
87.810 34.623 -36.550
92.840 35.591 -48.960
98.160 36.560 -62.087
103.780 37.528 -75.956
109.730 38.498 -90.643
116.020 39.467 -106.172
122.660 40.436 -122.569
129.690 41.406 -139.935
137.120 42.376 -158.296
144.970 43.345 -177.702
153.280 44.315 161.744
162.060 45.285 140.016
171.340 46.254 117.037
181.160 47.222 92.704
191.540 48.189 66.964
202.510 49.153 39.741
214.110 50.114 10.931
226.380 51.071 -19.565
239.350 52.023 -51.825
253.060 52.966 -85.947
267.560 53.901 -122.051
282.890 54.826 -160.233
299.090 55.737 159.414
316.230 56.636 116.727
334.340 57.519 71.639
353.500 58.388 23.959
373.750 59.242 -26.412
395.160 60.080 -79.654
417.800 60.900 -135.955
441.730 61.698 164.513
467.040 62.463 101.510
493.800 63.181 34.873
522.090 63.832 -35.521
552.000 64.400 -109.724
583.620 64.884 172.306
617.050 65.309 90.599
652.400 65.728 5.046
689.780 66.202 -84.697
729.290 66.781 -179.194
771.080 67.477 80.752
815.250 68.271 -25.520
861.950 69.123 -138.699
911.330 69.978 100.626
963.540 70.761 -28.035
1018.740 71.396 -165.139
1077.110 71.756 49.067
1138.810 71.707 -105.046
1204.050 71.184 93.414
1273.030 70.247 -74.484
1345.960 69.037 112.276
1423.070 67.945 -65.404
1504.590 67.562 111.083
1590.790 68.263 -83.628
1681.920 69.601 65.198
1778.280 70.955 -163.672
1880.150 71.908 -48.513
1987.870 72.389 51.241
2101.750 72.418 137.209
2222.150 72.165 -150.478
2349.460 71.850 -92.095
2484.060 71.702 -48.787
2626.360 72.015 -23.318
2776.820 72.598 -20.133
2935.900 72.912 -40.280
3104.100 72.758 -83.169
3281.930 72.123 -147.460
3469.940 71.205 127.296
3668.730 70.496 18.915
3878.910 69.971 -116.098
4101.130 69.304 78.786
4336.070 68.362 -115.891
4584.480 66.847 22.006
4847.120 65.955 134.390
5124.810 66.427 -148.768
5418.400 67.282 -128.317
5728.810 65.884 -136.742
6057.010 66.420 169.960
6404.000 66.260 61.354
6770.880 65.672 -74.894
7158.770 62.096 86.162
7568.890 59.850 -159.788
8002.500 57.750 -86.312
8460.950 56.125 -85.683
8945.670 50.215 -121.487
9458.160 53.461 130.268
10000.000 49.133 -57.741
