# Freq(Hz) SPL(dB) Phase (degrees)
10.000 -0.901 160.722
10.570 0.062 159.624
11.180 1.037 158.448
11.820 2.004 157.215
12.500 2.976 155.905
13.210 3.936 154.537
13.970 4.907 153.073
14.770 5.875 151.531
15.620 6.847 149.894
16.510 7.809 148.179
17.460 8.781 146.349
18.460 9.749 144.423
19.510 10.710 142.401
20.630 11.680 140.244
21.810 12.646 137.972
23.060 13.614 135.566
24.380 14.581 133.025
25.780 15.552 130.330
27.260 16.522 127.482
28.820 17.489 124.481
30.470 18.456 121.307
32.220 19.427 117.942
34.060 20.392 114.405
36.010 21.360 110.657
38.080 22.331 106.680
40.260 23.299 102.494
42.560 24.266 98.078
45.000 25.236 93.396
47.580 26.206 88.447
50.310 27.178 83.214
53.190 28.147 77.696
56.230 29.117 71.874
59.460 30.091 65.693
62.860 31.063 59.191
66.460 32.037 52.311
70.270 33.013 45.035
74.300 33.992 37.344
78.550 34.971 29.239
83.050 35.954 20.664
87.810 36.941 11.599
92.840 37.931 2.025
98.160 38.927 -8.096
103.780 39.927 -18.785
109.730 40.936 -30.101
116.020 41.953 -42.066
122.660 42.978 -54.705
129.690 44.014 -68.099
137.120 45.063 -82.277
144.970 46.124 -97.289
153.280 47.202 -113.224
162.060 48.294 -130.120
171.340 49.403 -148.052
181.160 50.530 -167.122
191.540 51.672 172.608
202.510 52.829 151.057
214.110 53.999 128.122
226.380 55.179 103.703
239.350 56.365 77.726
253.060 57.550 50.103
267.560 58.731 20.737
282.890 59.901 -10.440
299.090 61.056 -43.479
316.230 62.191 -78.481
334.340 63.306 -115.452
353.500 64.403 -154.492
373.750 65.489 164.378
395.160 66.574 121.062
417.800 67.678 75.428
441.730 68.820 27.299
467.040 70.018 -23.649
493.800 71.278 -77.781
522.090 72.585 -135.514
552.000 73.899 162.783
583.620 75.170 96.911
617.050 76.350 26.847
652.400 77.418 -47.325
689.780 78.377 -125.503
729.290 79.257 152.347
771.080 80.100 65.990
815.250 80.940 -24.894
861.950 81.787 -120.834
911.330 82.621 137.732
963.540 83.427 30.571
1018.740 84.227 -82.621
1077.110 85.037 157.455
1138.810 85.784 30.045
1204.050 86.352 -104.980
1273.030 86.719 112.772
1345.960 86.948 -36.756
1423.070 87.071 165.957
1504.590 87.075 0.605
1590.790 86.992 -172.953
1681.920 86.922 4.979
1778.280 86.962 173.218
1880.150 87.049 -29.524
1987.870 87.148 116.328
2101.750 87.301 -110.073
2222.150 87.434 10.075
2349.460 87.441 116.148
2484.060 87.277 -151.821
2626.360 87.030 -73.828
2776.820 86.906 -11.435
2935.900 86.734 32.777
3104.100 86.287 59.140
3281.930 85.723 66.991
3469.940 84.699 55.215
3668.730 83.362 26.655
3878.910 82.276 -19.454
4101.130 81.740 -87.018
4336.070 81.940 -179.457
4584.480 82.347 58.997
4847.120 83.086 -91.796
5124.810 83.658 84.110
5418.400 83.823 -132.159
5728.810 83.835 -17.943
6057.010 84.186 59.930
6404.000 84.442 100.992
6770.880 85.047 101.078
7158.770 85.161 59.490
7568.890 84.922 -25.818
8002.500 84.536 -155.792
8460.950 84.149 28.042
8945.670 84.393 159.701
9458.160 84.177 -124.271
10000.000 83.832 -105.899
