# Freq(Hz) SPL(dB) Phase (degrees)
10.000 -2.486 157.024
10.570 -1.524 155.715
11.180 -0.549 154.314
11.820 0.417 152.844
12.500 1.389 151.282
13.210 2.348 149.651
13.970 3.319 147.905
14.770 4.286 146.067
15.620 5.257 144.115
16.510 6.219 142.071
17.460 7.191 139.889
18.460 8.157 137.592
19.510 9.117 135.180
20.630 10.086 132.608
21.810 11.051 129.898
23.060 12.018 127.027
24.380 12.983 123.995
25.780 13.952 120.781
27.260 14.920 117.382
28.820 15.884 113.800
30.470 16.849 110.012
32.220 17.817 105.994
34.060 18.779 101.770
36.010 19.743 97.294
38.080 20.711 92.542
40.260 21.674 87.539
42.560 22.635 82.261
45.000 23.598 76.663
47.580 24.561 70.744
50.310 25.525 64.482
53.190 26.485 57.878
56.230 27.444 50.907
59.460 28.406 43.503
62.860 29.363 35.711
66.460 30.321 27.463
70.270 31.278 18.736
74.300 32.235 9.508
78.550 33.188 -0.221
83.050 34.141 -10.517
87.810 35.093 -21.405
92.840 36.043 -32.904
98.160 36.992 -45.061
103.780 37.938 -57.896
109.730 38.883 -71.478
116.020 39.826 -85.827
122.660 40.765 -100.965
129.690 41.704 -116.980
137.120 42.639 -133.895
144.970 43.571 -151.751
153.280 44.501 -170.638
162.060 45.428 169.426
171.340 46.351 148.376
181.160 47.272 126.125
191.540 48.189 102.635
202.510 49.102 77.843
214.110 50.013 51.667
226.380 50.921 24.029
239.350 51.826 -5.129
253.060 52.731 -35.880
267.560 53.639 -68.323
282.890 54.552 -102.529
299.090 55.476 -138.578
316.230 56.418 -176.619
334.340 57.389 143.269
353.500 58.399 100.873
373.750 59.460 56.035
395.160 60.581 8.488
417.800 61.768 -42.080
441.730 63.015 -95.987
467.040 64.307 -153.625
493.800 65.612 144.694
522.090 66.891 78.721
552.000 68.100 8.300
583.620 69.202 -66.604
617.050 70.177 -145.983
652.400 71.022 130.136
689.780 71.743 41.646
729.290 72.343 -51.617
771.080 72.809 -149.945
815.250 73.114 106.594
861.950 73.239 -1.970
911.330 73.197 -115.424
963.540 73.081 126.427
1018.740 73.008 3.258
1077.110 73.106 -125.940
1138.810 73.385 97.457
1204.050 73.744 -47.680
1273.030 74.058 158.317
1345.960 74.284 -4.430
1423.070 74.469 -175.951
1504.590 74.706 3.167
1590.790 75.036 171.536
1681.920 75.347 -32.147
1778.280 75.450 111.479
1880.150 75.171 -117.184
1987.870 74.447 3.986
2101.750 73.928 116.622
2222.150 74.282 -145.071
2349.460 74.772 -66.958
2484.060 74.642 -7.539
2626.360 73.896 37.530
2776.820 73.243 69.546
2935.900 73.308 82.866
3104.100 73.427 71.107
3281.930 72.599 36.657
3469.940 71.033 -11.717
3668.730 71.163 -78.988
3878.910 71.501 179.325
4101.130 70.867 50.199
4336.070 69.688 -101.141
4584.480 69.715 83.009
4847.120 70.112 -134.236
5124.810 68.457 -23.996
5418.400 68.024 56.752
5728.810 67.244 101.111
6057.010 66.579 112.360
6404.000 66.854 68.623
6770.880 65.055 -8.379
7158.770 64.794 -132.047
7568.890 63.774 54.131
8002.500 62.899 -157.551
8460.950 62.154 -88.697
8945.670 59.833 -69.152
9458.160 59.643 -88.943
10000.000 56.912 152.801
