# Freq(Hz) SPL(dB) Phase (degrees)
10.000 -1.485 159.439
10.570 -0.522 158.268
11.180 0.452 157.014
11.820 1.419 155.699
12.500 2.390 154.301
13.210 3.350 152.842
13.970 4.321 151.280
14.770 5.288 149.636
15.620 6.259 147.889
16.510 7.222 146.060
17.460 8.193 144.108
18.460 9.160 142.054
19.510 10.120 139.897
20.630 11.089 137.596
21.810 12.054 135.172
23.060 13.022 132.605
24.380 13.987 129.895
25.780 14.956 127.020
27.260 15.925 123.982
28.820 16.890 120.780
30.470 17.855 117.394
32.220 18.824 113.803
34.060 19.787 110.029
36.010 20.752 106.030
38.080 21.720 101.786
40.260 22.685 97.318
42.560 23.647 92.606
45.000 24.613 87.609
47.580 25.578 82.328
50.310 26.544 76.742
53.190 27.507 70.853
56.230 28.469 64.640
59.460 29.435 58.042
62.860 30.397 51.103
66.460 31.360 43.760
70.270 32.325 35.995
74.300 33.290 27.789
78.550 34.252 19.143
83.050 35.217 9.997
87.810 36.183 0.332
92.840 37.150 -9.870
98.160 38.118 -20.649
103.780 39.088 -32.023
109.730 40.063 -44.053
116.020 41.040 -56.758
122.660 42.021 -70.157
129.690 43.009 -84.334
137.120 44.004 -99.308
144.970 45.006 -115.125
153.280 46.020 -131.871
162.060 47.045 -149.573
171.340 48.083 -168.304
181.160 49.137 171.843
191.540 50.207 150.810
202.510 51.295 128.513
214.110 52.401 104.848
226.380 53.526 79.707
239.350 54.669 52.999
253.060 55.827 24.614
267.560 56.998 -5.576
282.890 58.178 -37.680
299.090 59.363 -71.797
316.230 60.549 -108.088
334.340 61.729 -146.623
353.500 62.900 172.424
373.750 64.054 128.968
395.160 65.186 82.861
417.800 66.287 33.958
441.730 67.346 -17.849
467.040 68.351 -72.705
493.800 69.287 -130.662
522.090 70.145 168.280
552.000 70.930 104.158
583.620 71.672 37.002
617.050 72.420 -33.313
652.400 73.231 -107.186
689.780 74.134 174.752
729.290 75.113 91.835
771.080 76.112 3.445
815.250 77.056 -90.653
861.950 77.886 169.481
911.330 78.572 63.959
963.540 79.122 -47.115
1018.740 79.591 -163.750
1077.110 80.036 73.663
1138.810 80.490 -55.544
1204.050 80.913 167.933
1273.030 81.255 23.893
1345.960 81.532 -127.659
1423.070 81.809 72.981
1504.590 82.155 -94.874
1590.790 82.599 87.714
1681.920 83.106 -100.316
1778.280 83.583 60.193
1880.150 83.941 -150.913
1987.870 84.199 -13.699
2101.750 84.425 111.138
2222.150 84.616 -137.342
2349.460 84.716 -40.218
2484.060 84.633 42.433
2626.360 84.459 110.578
2776.820 84.296 163.214
2935.900 84.213 -160.577
3104.100 84.394 -142.642
3281.930 84.669 -145.855
3469.940 84.849 -170.298
3668.730 85.028 142.445
3878.910 84.961 71.170
4101.130 84.641 -24.040
4336.070 84.116 -143.265
4584.480 83.815 72.255
4847.120 83.742 -102.045
5124.810 83.797 51.224
5418.400 83.428 171.737
5728.810 82.763 -101.314
6057.010 81.961 -48.089
6404.000 81.667 -32.335
6770.880 81.383 -58.553
7158.770 80.725 -130.421
7568.890 79.408 117.630
8002.500 78.893 -42.198
8460.950 78.260 108.636
8945.670 76.605 -159.986
9458.160 75.541 -121.779
10000.000 74.365 -142.400
