# Freq(Hz) SPL(dB) Phase (degrees)
10.000 -1.391 159.653
10.570 -0.428 158.494
11.180 0.547 157.253
11.820 1.513 155.951
12.500 2.485 154.568
13.210 3.444 153.124
13.970 4.416 151.578
14.770 5.383 149.952
15.620 6.354 148.223
16.510 7.317 146.413
17.460 8.288 144.482
18.460 9.255 142.448
19.510 10.215 140.314
20.630 11.184 138.037
21.810 12.150 135.639
23.060 13.117 133.098
24.380 14.083 130.416
25.780 15.052 127.571
27.260 16.021 124.565
28.820 16.986 121.396
30.470 17.952 118.046
32.220 18.921 114.493
34.060 19.884 110.758
36.010 20.849 106.801
38.080 21.818 102.602
40.260 22.783 98.181
42.560 23.746 93.519
45.000 24.712 88.575
47.580 25.678 83.349
50.310 26.645 77.823
53.190 27.609 71.996
56.230 28.572 65.849
59.460 29.539 59.321
62.860 30.502 52.455
66.460 31.467 45.191
70.270 32.433 37.509
74.300 33.400 29.391
78.550 34.365 20.837
83.050 35.332 11.788
87.810 36.301 2.226
92.840 37.271 -7.867
98.160 38.244 -18.532
103.780 39.218 -29.788
109.730 40.198 -41.692
116.020 41.182 -54.266
122.660 42.169 -67.531
129.690 43.165 -81.567
137.120 44.168 -96.397
144.970 45.180 -112.067
153.280 46.205 -128.664
162.060 47.242 -146.217
171.340 48.293 -164.798
181.160 49.360 175.495
191.540 50.445 154.603
202.510 51.547 132.443
214.110 52.668 108.909
226.380 53.806 83.893
239.350 54.960 57.304
253.060 56.127 29.036
267.560 57.305 -1.037
282.890 58.488 -33.017
299.090 59.672 -66.998
316.230 60.851 -103.131
334.340 62.021 -141.476
353.500 63.177 177.806
373.750 64.312 134.643
395.160 65.423 88.902
417.800 66.503 40.454
441.730 67.545 -10.797
467.040 68.543 -64.988
493.800 69.488 -122.176
522.090 70.381 177.603
552.000 71.234 114.309
583.620 72.075 47.855
617.050 72.943 -22.012
652.400 73.869 -95.745
689.780 74.854 -173.905
729.290 75.867 103.010
771.080 76.857 14.558
815.250 77.764 -79.380
861.950 78.548 -178.825
911.330 79.198 76.315
963.540 79.736 -33.915
1018.740 80.225 -149.644
1077.110 80.719 88.600
1138.810 81.231 -39.958
1204.050 81.695 -175.969
1273.030 82.052 40.529
1345.960 82.333 -110.372
1423.070 82.617 90.999
1504.590 82.962 -76.131
1590.790 83.385 107.245
1681.920 83.850 -79.792
1778.280 84.279 82.051
1880.150 84.630 -127.321
1987.870 84.978 11.669
2101.750 85.338 137.713
2222.150 85.607 -110.093
2349.460 85.685 -12.126
2484.060 85.573 71.897
2626.360 85.396 141.501
2776.820 85.227 -164.266
2935.900 85.183 -126.480
3104.100 85.309 -107.566
3281.930 85.398 -108.447
3469.940 85.629 -129.969
3668.730 85.846 -175.103
3878.910 85.804 115.789
4101.130 85.423 22.756
4336.070 84.944 -93.675
4584.480 84.516 123.324
4847.120 84.189 -47.097
5124.810 84.142 110.939
5418.400 83.978 -124.982
5728.810 83.331 -34.854
6057.010 82.564 21.520
6404.000 81.814 42.295
6770.880 81.607 20.885
7158.770 80.919 -45.557
7568.890 79.938 -154.258
8002.500 78.955 53.207
8460.950 78.713 -152.075
8945.670 77.424 -52.745
9458.160 76.360 -4.916
10000.000 75.215 -17.800
