# Freq(Hz) SPL(dB) Phase (degrees)
10.000 -1.002 160.506
10.570 -0.039 159.396
11.180 0.936 158.207
11.820 1.903 156.960
12.500 2.874 155.635
13.210 3.834 154.251
13.970 4.806 152.771
14.770 5.773 151.212
15.620 6.745 149.556
16.510 7.707 147.823
17.460 8.679 145.972
18.460 9.647 144.024
19.510 10.608 141.980
20.630 11.577 139.799
21.810 12.543 137.501
23.060 13.511 135.067
24.380 14.478 132.498
25.780 15.448 129.773
27.260 16.418 126.893
28.820 17.384 123.858
30.470 18.351 120.649
32.220 19.322 117.246
34.060 20.286 113.669
36.010 21.254 109.879
38.080 22.225 105.858
40.260 23.192 101.624
42.560 24.158 97.159
45.000 25.127 92.424
47.580 26.096 87.420
50.310 27.066 82.127
53.190 28.035 76.547
56.230 29.002 70.661
59.460 29.975 64.410
62.860 30.945 57.836
66.460 31.917 50.879
70.270 32.891 43.522
74.300 33.867 35.746
78.550 34.843 27.553
83.050 35.823 18.884
87.810 36.805 9.721
92.840 37.791 0.045
98.160 38.782 -10.182
103.780 39.777 -20.981
109.730 40.780 -32.411
116.020 41.789 -44.493
122.660 42.806 -57.251
129.690 43.834 -70.768
137.120 44.874 -85.069
144.970 45.925 -100.205
153.280 46.993 -116.264
162.060 48.075 -133.282
171.340 49.173 -151.336
181.160 50.289 -170.525
191.540 51.422 169.088
202.510 52.570 147.419
214.110 53.733 124.365
226.380 54.907 99.823
239.350 56.089 73.715
253.060 57.274 45.947
267.560 58.457 16.417
282.890 59.632 -14.952
299.090 60.793 -48.219
316.230 61.938 -83.497
334.340 63.061 -120.803
353.500 64.165 -160.246
373.750 65.250 158.148
395.160 66.325 114.286
417.800 67.402 68.054
441.730 68.495 19.320
467.040 69.622 -32.168
493.800 70.793 -86.694
522.090 72.006 -144.617
552.000 73.243 153.690
583.620 74.465 87.951
617.050 75.634 18.016
652.400 76.721 -56.157
689.780 77.719 -134.566
729.290 78.634 142.787
771.080 79.486 55.714
815.250 80.296 -35.963
861.950 81.075 -132.590
911.330 81.827 125.497
963.540 82.553 18.037
1018.740 83.288 -95.340
1077.110 84.047 144.647
1138.810 84.767 17.204
1204.050 85.331 -117.904
1273.030 85.702 99.695
1345.960 85.938 -49.961
1423.070 86.084 152.703
1504.590 86.138 -12.637
1590.790 86.148 173.907
1681.920 86.251 -8.119
1778.280 86.548 159.707
1880.150 86.936 -44.295
1987.870 87.262 99.425
2101.750 87.529 -129.126
2222.150 87.779 -10.775
2349.460 87.962 93.279
2484.060 87.984 -177.345
2626.360 87.848 -102.782
2776.820 87.635 -43.630
2935.900 87.413 -1.269
3104.100 87.090 22.797
3281.930 86.557 28.346
3469.940 85.953 14.668
3668.730 85.086 -19.592
3878.910 84.081 -73.024
4101.130 83.552 -147.503
4336.070 83.229 110.652
4584.480 82.825 -16.997
4847.120 82.265 -173.118
5124.810 81.769 3.351
5418.400 81.490 149.778
5728.810 81.512 -94.799
6057.010 82.125 -16.651
6404.000 82.686 19.720
6770.880 82.955 17.441
7158.770 83.240 -28.504
7568.890 83.325 -116.264
8002.500 83.556 109.382
8460.950 83.624 -76.304
8945.670 83.204 44.989
9458.160 82.788 113.909
10000.000 82.253 125.917
