# Freq(Hz) SPL(dB) Phase (degrees)
10.000 -1.301 159.854
10.570 -0.338 158.706
11.180 0.637 157.478
11.820 1.604 156.189
12.500 2.575 154.820
13.210 3.535 153.390
13.970 4.506 151.860
14.770 5.473 150.249
15.620 6.445 148.538
16.510 7.407 146.746
17.460 8.379 144.833
18.460 9.346 142.820
19.510 10.306 140.707
20.630 11.275 138.453
21.810 12.241 136.078
23.060 13.208 133.563
24.380 14.175 130.907
25.780 15.144 128.091
27.260 16.113 125.115
28.820 17.078 121.978
30.470 18.044 118.660
32.220 19.013 115.143
34.060 19.977 111.445
36.010 20.943 107.528
38.080 21.912 103.371
40.260 22.878 98.994
42.560 23.841 94.379
45.000 24.808 89.484
47.580 25.774 84.311
50.310 26.742 78.840
53.190 27.707 73.072
56.230 28.671 66.986
59.460 29.639 60.525
62.860 30.604 53.728
66.460 31.570 46.537
70.270 32.538 38.933
74.300 33.506 30.896
78.550 34.474 22.429
83.050 35.444 13.471
87.810 36.416 4.005
92.840 37.389 -5.988
98.160 38.366 -16.547
103.780 39.345 -27.691
109.730 40.329 -39.480
116.020 41.319 -51.934
122.660 42.313 -65.074
129.690 43.316 -78.982
137.120 44.328 -93.681
144.970 45.350 -109.218
153.280 46.384 -125.680
162.060 47.432 -143.098
171.340 48.495 -161.546
181.160 49.575 178.878
191.540 50.673 158.113
202.510 51.787 136.076
214.110 52.920 112.659
226.380 54.069 87.756
239.350 55.232 61.279
253.060 56.406 33.122
267.560 57.588 3.164
282.890 58.771 -28.691
299.090 59.951 -62.529
316.230 61.124 -98.493
334.340 62.282 -136.634
353.500 63.424 -177.099
373.750 64.542 140.050
395.160 65.636 94.696
417.800 66.703 46.721
441.730 67.738 -3.962
467.040 68.742 -57.495
493.800 69.714 -113.959
522.090 70.661 -173.447
552.000 71.596 123.908
583.620 72.542 57.906
617.050 73.516 -11.772
652.400 74.524 -85.551
689.780 75.551 -163.863
729.290 76.566 112.954
771.080 77.527 24.585
815.250 78.395 -69.032
861.950 79.144 -167.930
911.330 79.780 87.924
963.540 80.330 -21.505
1018.740 80.858 -136.456
1077.110 81.412 102.441
1138.810 81.981 -25.647
1204.050 82.481 -161.288
1273.030 82.851 55.615
1345.960 83.134 -94.812
1423.070 83.410 107.052
1504.590 83.721 -59.558
1590.790 84.076 124.578
1681.920 84.466 -61.269
1778.280 84.865 102.186
1880.150 85.275 -105.483
1987.870 85.730 34.722
2101.750 86.161 161.495
2222.150 86.421 -85.529
2349.460 86.471 13.719
2484.060 86.384 99.221
2626.360 86.253 170.075
2776.820 86.115 -134.699
2935.900 86.018 -96.166
3104.100 85.954 -75.686
3281.930 85.995 -73.896
3469.940 86.232 -93.760
3668.730 86.340 -136.628
3878.910 86.262 156.988
4101.130 85.946 66.790
4336.070 85.513 -48.435
4584.480 84.849 171.214
4847.120 84.375 3.452
5124.810 84.117 165.853
5418.400 83.899 -65.427
5728.810 83.443 28.801
6057.010 82.612 87.918
6404.000 81.840 113.294
6770.880 81.294 99.440
7158.770 80.826 38.952
7568.890 79.816 -64.395
8002.500 79.857 148.329
8460.950 78.874 -50.297
8945.670 77.986 55.353
9458.160 76.832 104.799
10000.000 75.765 101.995
