# Freq(Hz) SPL(dB) Phase (degrees)
10.000 -3.147 155.266
10.570 -2.184 153.856
11.180 -1.209 152.347
11.820 -0.242 150.765
12.500 0.730 149.083
13.210 1.690 147.327
13.970 2.661 145.447
14.770 3.629 143.469
15.620 4.601 141.367
16.510 5.563 139.165
17.460 6.535 136.816
18.460 7.503 134.343
19.510 8.464 131.746
20.630 9.434 128.976
21.810 10.400 126.057
23.060 11.368 122.966
24.380 12.335 119.701
25.780 13.305 116.239
27.260 14.275 112.578
28.820 15.242 108.720
30.470 16.209 104.639
32.220 17.179 100.311
34.060 18.144 95.760
36.010 19.112 90.937
38.080 20.083 85.817
40.260 21.050 80.425
42.560 22.015 74.737
45.000 22.984 68.702
47.580 23.953 62.321
50.310 24.922 55.568
53.190 25.890 48.445
56.230 26.856 40.925
59.460 27.827 32.936
62.860 28.794 24.526
66.460 29.762 15.620
70.270 30.731 6.195
74.300 31.701 -3.775
78.550 32.669 -14.290
83.050 33.638 -25.424
87.810 34.608 -37.202
92.840 35.577 -49.650
98.160 36.548 -62.818
103.780 37.518 -76.730
109.730 38.489 -91.462
116.020 39.461 -107.039
122.660 40.432 -123.488
129.690 41.405 -140.909
137.120 42.377 -159.327
144.970 43.350 -178.796
153.280 44.324 160.585
162.060 45.298 138.786
171.340 46.271 115.732
181.160 47.245 91.319
191.540 48.218 65.494
202.510 49.188 38.179
214.110 50.157 9.272
226.380 51.122 -21.331
239.350 52.083 -53.704
253.060 53.037 -87.947
267.560 53.983 -124.185
282.890 54.921 -162.511
299.090 55.847 156.980
316.230 56.763 114.120
334.340 57.665 68.842
353.500 58.555 20.951
373.750 59.433 -29.656
395.160 60.297 -83.164
417.800 61.146 -139.768
441.730 61.976 160.354
467.040 62.776 96.951
493.800 63.530 29.849
522.090 64.218 -41.088
552.000 64.821 -115.924
583.620 65.334 165.372
617.050 65.777 82.835
652.400 66.195 -3.622
689.780 66.648 -94.292
729.290 67.184 170.331
771.080 67.822 69.505
815.250 68.556 -37.383
861.950 69.358 -151.011
911.330 70.193 87.989
963.540 71.001 -40.993
1018.740 71.712 -178.540
1077.110 72.202 34.909
1138.810 72.330 -120.497
1204.050 72.008 75.866
1273.030 71.255 -95.259
1345.960 70.116 86.695
1423.070 68.730 -97.326
1504.590 67.401 73.501
1590.790 66.753 -121.721
1681.920 67.219 31.459
1778.280 68.403 166.932
1880.150 69.407 -75.987
1987.870 69.890 24.001
2101.750 69.738 109.857
2222.150 69.179 -177.154
2349.460 68.553 -116.298
2484.060 68.394 -68.680
2626.360 69.275 -39.454
2776.820 70.662 -36.098
2935.900 71.594 -58.533
3104.100 71.864 -104.765
3281.930 71.424 -172.556
3469.940 70.645 100.096
3668.730 70.438 -10.199
3878.910 70.598 -150.744
4101.130 70.323 34.187
4336.070 69.141 -169.648
4584.480 66.998 -41.895
4847.120 65.090 59.909
5124.810 63.133 122.859
5418.400 61.561 147.802
5728.810 56.431 145.999
6057.010 59.486 118.308
6404.000 60.645 13.393
6770.880 59.127 -105.854
7158.770 58.529 22.531
7568.890 57.136 115.966
8002.500 50.429 -173.244
8460.950 53.434 -177.712
8945.670 52.020 -110.749
9458.160 16.644 -146.169
10000.000 42.684 -58.288
