# Freq(Hz) SPL(dB) Phase (degrees)
10.000 -2.486 157.024
10.570 -1.524 155.715
11.180 -0.549 154.314
11.820 0.417 152.844
12.500 1.389 151.282
13.210 2.348 149.651
13.970 3.319 147.905
14.770 4.286 146.067
15.620 5.257 144.115
16.510 6.219 142.071
17.460 7.191 139.889
18.460 8.157 137.592
19.510 9.117 135.180
20.630 10.086 132.608
21.810 11.051 129.898
23.060 12.018 127.027
24.380 12.983 123.995
25.780 13.952 120.780
27.260 14.920 117.382
28.820 15.884 113.800
30.470 16.849 110.012
32.220 17.817 105.994
34.060 18.779 101.770
36.010 19.743 97.294
38.080 20.711 92.542
40.260 21.674 87.539
42.560 22.635 82.261
45.000 23.598 76.663
47.580 24.561 70.744
50.310 25.525 64.482
53.190 26.485 57.878
56.230 27.444 50.907
59.460 28.406 43.503
62.860 29.363 35.711
66.460 30.321 27.462
70.270 31.278 18.735
74.300 32.235 9.508
78.550 33.188 -0.221
83.050 34.141 -10.518
87.810 35.093 -21.405
92.840 36.043 -32.904
98.160 36.992 -45.061
103.780 37.938 -57.897
109.730 38.883 -71.478
116.020 39.826 -85.827
122.660 40.765 -100.965
129.690 41.704 -116.981
137.120 42.639 -133.895
144.970 43.571 -151.751
153.280 44.501 -170.638
162.060 45.428 169.426
171.340 46.351 148.376
181.160 47.272 126.125
191.540 48.189 102.634
202.510 49.102 77.842
214.110 50.013 51.667
226.380 50.921 24.028
239.350 51.826 -5.129
253.060 52.731 -35.881
267.560 53.639 -68.323
282.890 54.552 -102.530
299.090 55.476 -138.578
316.230 56.418 -176.619
334.340 57.389 143.269
353.500 58.399 100.873
373.750 59.460 56.035
395.160 60.581 8.488
417.800 61.768 -42.080
441.730 63.015 -95.987
467.040 64.307 -153.625
493.800 65.612 144.695
522.090 66.891 78.721
552.000 68.100 8.300
583.620 69.202 -66.605
617.050 70.177 -145.984
652.400 71.022 130.135
689.780 71.744 41.645
729.290 72.343 -51.618
771.080 72.809 -149.947
815.250 73.115 106.592
861.950 73.239 -1.973
911.330 73.197 -115.426
963.540 73.080 126.424
1018.740 73.008 3.256
1077.110 73.106 -125.942
1138.810 73.385 97.459
1204.050 73.743 -47.675
1273.030 74.058 158.321
1345.960 74.286 -4.425
1423.070 74.470 -175.950
1504.590 74.710 3.151
1590.790 75.036 171.528
1681.920 75.347 -32.160
1778.280 75.452 111.462
1880.150 75.167 -117.143
1987.870 74.446 3.984
2101.750 73.927 116.619
2222.150 74.281 -145.077
2349.460 74.750 -67.212
2484.060 74.642 -7.539
2626.360 73.898 37.526
2776.820 73.241 69.516
2935.900 73.306 82.860
3104.100 73.420 71.091
3281.930 72.599 36.680
3469.940 71.031 -11.695
3668.730 71.164 -78.928
3878.910 71.507 179.318
4101.130 70.864 50.068
4336.070 69.679 -101.105
4584.480 69.715 83.025
4847.120 70.114 -134.304
5124.810 68.452 -24.050
5418.400 67.985 56.981
5728.810 67.522 100.028
6057.010 66.592 112.534
6404.000 66.842 68.579
6770.880 64.962 -7.982
7158.770 65.032 -133.146
7568.890 63.792 54.881
8002.500 62.889 -157.078
8460.950 62.254 -86.840
8945.670 59.838 -68.365
9458.160 59.367 -86.968
10000.000 55.654 151.228
