# Freq(Hz) SPL(dB) Phase (degrees)
10.000 -2.575 156.796
10.570 -1.613 155.473
11.180 -0.638 154.058
11.820 0.329 152.574
12.500 1.300 150.996
13.210 2.259 149.349
13.970 3.231 147.586
14.770 4.197 145.730
15.620 5.169 143.758
16.510 6.131 141.693
17.460 7.102 139.489
18.460 8.069 137.169
19.510 9.029 134.734
20.630 9.998 132.136
21.810 10.963 129.398
23.060 11.930 126.499
24.380 12.895 123.437
25.780 13.864 120.190
27.260 14.832 116.757
28.820 15.797 113.139
30.470 16.762 109.313
32.220 17.730 105.255
34.060 18.692 100.988
36.010 19.656 96.467
38.080 20.624 91.667
40.260 21.587 86.614
42.560 22.549 81.282
45.000 23.513 75.627
47.580 24.476 69.647
50.310 25.440 63.321
53.190 26.401 56.649
56.230 27.360 49.606
59.460 28.322 42.125
62.860 29.280 34.252
66.460 30.238 25.917
70.270 31.197 17.098
74.300 32.154 7.773
78.550 33.108 -2.060
83.050 34.062 -12.467
87.810 35.015 -23.472
92.840 35.966 -35.098
98.160 36.916 -47.389
103.780 37.863 -60.368
109.730 38.809 -74.103
116.020 39.753 -88.616
122.660 40.693 -103.929
129.690 41.632 -120.134
137.120 42.568 -137.250
144.970 43.500 -155.323
153.280 44.430 -174.443
162.060 45.356 165.370
171.340 46.278 144.050
181.160 47.196 121.509
191.540 48.109 97.707
202.510 49.016 72.580
214.110 49.918 46.045
226.380 50.815 18.023
239.350 51.706 -11.543
253.060 52.591 -42.725
267.560 53.472 -75.618
282.890 54.353 -110.289
299.090 55.235 -146.805
316.230 56.128 174.696
334.340 57.039 134.156
353.500 57.981 91.387
373.750 58.967 46.255
395.160 60.011 -1.484
417.800 61.124 -52.126
441.730 62.309 -105.994
467.040 63.556 -163.502
493.800 64.840 135.001
522.090 66.125 69.215
552.000 67.366 -1.064
583.620 68.526 -75.916
617.050 69.582 -155.373
652.400 70.529 120.503
689.780 71.369 31.576
729.290 72.100 -62.351
771.080 72.707 -161.610
815.250 73.158 93.675
861.950 73.417 -16.537
911.330 73.476 -132.094
963.540 73.382 107.274
1018.740 73.219 -18.480
1077.110 73.118 -149.807
1138.810 73.168 72.276
1204.050 73.360 -73.563
1273.030 73.592 131.831
1345.960 73.791 -31.715
1423.070 73.960 155.750
1504.590 74.195 -26.151
1590.790 74.569 141.288
1681.920 75.029 -63.645
1778.280 75.369 77.798
1880.150 75.329 -154.598
1987.870 74.603 -39.820
2101.750 73.237 66.572
2222.150 72.383 166.793
2349.460 72.921 -109.261
2484.060 73.707 -48.776
2626.360 73.725 -9.110
2776.820 72.991 14.873
2935.900 72.295 24.926
3104.100 72.311 14.987
3281.930 72.322 -20.839
3469.940 71.370 -80.012
3668.730 70.436 -155.612
3878.910 70.077 101.392
4101.130 69.275 -26.867
4336.070 68.945 175.192
4584.480 67.129 -10.159
4847.120 67.754 146.518
5124.810 68.584 -120.228
5418.400 66.910 -50.704
5728.810 65.527 -0.619
6057.010 65.615 -3.901
6404.000 64.127 -46.541
6770.880 62.628 -124.342
7158.770 62.686 105.396
7568.890 62.120 -77.919
8002.500 59.752 30.257
8460.950 59.846 133.073
8945.670 57.171 142.936
9458.160 55.188 62.230
10000.000 55.107 -17.624
