# Freq(Hz) SPL(dB) Phase (degrees)
10.000 -1.137 160.214
10.570 -0.174 159.086
11.180 0.800 157.880
11.820 1.767 156.614
12.500 2.739 155.269
13.210 3.698 153.865
13.970 4.670 152.362
14.770 5.637 150.780
15.620 6.609 149.099
16.510 7.571 147.340
17.460 8.543 145.461
18.460 9.510 143.484
19.510 10.471 141.409
20.630 11.440 139.195
21.810 12.406 136.863
23.060 13.374 134.393
24.380 14.341 131.785
25.780 15.310 129.019
27.260 16.279 126.096
28.820 17.246 123.015
30.470 18.212 119.757
32.220 19.182 116.303
34.060 20.146 112.672
36.010 21.112 108.825
38.080 22.083 104.743
40.260 23.049 100.445
42.560 24.014 95.912
45.000 24.982 91.106
47.580 25.950 86.026
50.310 26.919 80.654
53.190 27.886 74.990
56.230 28.851 69.014
59.460 29.822 62.670
62.860 30.789 55.996
66.460 31.759 48.935
70.270 32.730 41.468
74.300 33.702 33.576
78.550 34.674 25.260
83.050 35.649 16.463
87.810 36.627 7.166
92.840 37.607 -2.651
98.160 38.591 -13.025
103.780 39.579 -23.976
109.730 40.573 -35.564
116.020 41.574 -47.810
122.660 42.580 -60.736
129.690 43.597 -74.423
137.120 44.624 -88.898
144.970 45.662 -104.208
153.280 46.715 -120.442
162.060 47.782 -137.633
171.340 48.865 -155.858
181.160 49.966 -175.215
191.540 51.084 164.234
202.510 52.219 142.403
214.110 53.369 119.188
226.380 54.534 94.484
239.350 55.710 68.206
253.060 56.891 40.257
267.560 58.075 10.523
282.890 59.256 -21.080
299.090 60.426 -54.625
316.230 61.584 -90.239
334.340 62.722 -127.951
353.500 63.839 -167.891
373.750 64.935 149.904
395.160 66.010 105.334
417.800 67.070 58.293
441.730 68.121 8.685
467.040 69.173 -43.672
493.800 70.237 -98.952
522.090 71.321 -157.394
552.000 72.427 140.700
583.620 73.545 75.023
617.050 74.658 5.289
652.400 75.742 -68.738
689.780 76.777 -147.230
729.290 77.746 129.702
771.080 78.640 41.862
815.250 79.453 -50.819
861.950 80.188 -148.496
911.330 80.857 108.679
963.540 81.484 0.511
1018.740 82.120 -113.371
1077.110 82.792 126.313
1138.810 83.456 -1.278
1204.050 84.003 -136.530
1273.030 84.382 80.842
1345.960 84.646 -69.060
1423.070 84.861 133.350
1504.590 85.035 -32.457
1590.790 85.200 153.193
1681.920 85.444 -30.200
1778.280 85.840 136.123
1880.150 86.356 -69.296
1987.870 86.862 72.447
2101.750 87.231 -158.905
2222.150 87.447 -43.248
2349.460 87.574 58.829
2484.060 87.619 146.474
2626.360 87.559 -141.110
2776.820 87.360 -84.576
2935.900 87.056 -43.972
3104.100 86.872 -20.390
3281.930 86.761 -16.729
3469.940 86.520 -33.187
3668.730 86.302 -70.752
3878.910 86.050 -131.137
4101.130 85.712 144.184
4336.070 85.249 34.735
4584.480 84.616 -102.064
4847.120 83.587 95.456
5124.810 82.725 -94.096
5418.400 82.393 47.530
5728.810 82.127 151.301
6057.010 81.748 -140.708
6404.000 81.148 -108.476
6770.880 80.591 -114.317
7158.770 80.456 -160.137
7568.890 80.618 108.612
8002.500 80.792 -35.627
8460.950 80.203 136.208
8945.670 80.068 -104.436
9458.160 80.093 -42.853
10000.000 79.468 -41.266
