# Freq(Hz) SPL(dB) Phase (degrees)
10.000 -3.086 155.433
10.570 -2.123 154.033
11.180 -1.148 152.534
11.820 -0.182 150.962
12.500 0.790 149.292
13.210 1.750 147.548
13.970 2.722 145.681
14.770 3.689 143.716
15.620 4.661 141.628
16.510 5.623 139.441
17.460 6.595 137.108
18.460 7.563 134.651
19.510 8.523 132.072
20.630 9.493 129.321
21.810 10.459 126.422
23.060 11.427 123.351
24.380 12.394 120.109
25.780 13.364 116.670
27.260 14.333 113.034
28.820 15.300 109.202
30.470 16.267 105.149
32.220 17.237 100.850
34.060 18.201 96.330
36.010 19.168 91.540
38.080 20.139 86.455
40.260 21.105 81.100
42.560 22.070 75.450
45.000 23.038 69.456
47.580 24.006 63.118
50.310 24.975 56.412
53.190 25.941 49.337
56.230 26.906 41.869
59.460 27.876 33.935
62.860 28.841 25.582
66.460 29.808 16.738
70.270 30.775 7.378
74.300 31.743 -2.523
78.550 32.708 -12.965
83.050 33.675 -24.022
87.810 34.642 -35.718
92.840 35.609 -48.079
98.160 36.576 -61.155
103.780 37.542 -74.969
109.730 38.509 -89.597
116.020 39.477 -105.064
122.660 40.442 -121.395
129.690 41.409 -138.690
137.120 42.375 -156.976
144.970 43.340 -176.303
153.280 44.306 163.229
162.060 45.270 141.591
171.340 46.233 118.709
181.160 47.196 94.480
191.540 48.155 68.852
202.510 49.112 41.748
214.110 50.064 13.067
226.380 51.011 -17.291
239.350 51.951 -49.401
253.060 52.882 -83.360
267.560 53.803 -119.289
282.890 54.711 -157.278
299.090 55.605 162.581
316.230 56.484 120.127
334.340 57.345 75.298
353.500 58.189 27.908
373.750 59.015 -22.137
395.160 59.822 -75.008
417.800 60.610 -130.885
441.730 61.372 170.072
467.040 62.101 107.637
493.800 62.783 41.661
522.090 63.402 -27.963
552.000 63.947 -101.274
583.620 64.424 -178.233
617.050 64.865 101.167
652.400 65.331 16.750
689.780 65.886 -71.924
729.290 66.568 -165.519
771.080 67.376 95.103
815.250 68.272 -10.727
861.950 69.194 -123.636
911.330 70.074 115.903
963.540 70.828 -12.415
1018.740 71.385 -148.887
1077.110 71.628 66.481
1138.810 71.458 -85.691
1204.050 70.873 115.731
1273.030 70.053 -48.151
1345.960 69.317 143.072
1423.070 69.152 -32.117
1504.590 69.765 142.385
1590.790 70.924 -57.307
1681.920 72.179 87.337
1778.280 73.223 -143.641
1880.150 73.902 -29.094
1987.870 74.169 70.912
2101.750 74.049 157.136
2222.150 73.645 -130.398
2349.460 73.118 -72.119
2484.060 72.633 -28.802
2626.360 72.420 -2.621
2776.820 72.351 3.133
2935.900 72.086 -12.216
3104.100 71.559 -48.261
3281.930 70.958 -104.634
3469.940 70.508 176.882
3668.730 70.314 73.379
3878.910 70.469 -56.747
4101.130 70.919 141.539
4336.070 70.830 -53.825
4584.480 70.006 80.757
4847.120 69.275 -171.691
5124.810 69.577 -100.817
5418.400 68.393 -80.294
5728.810 66.272 -81.287
6057.010 65.679 -122.188
6404.000 65.571 149.035
6770.880 64.664 3.325
7158.770 64.407 177.867
7568.890 63.550 -63.100
8002.500 59.805 -9.767
8460.950 57.574 9.504
8945.670 54.681 -24.337
9458.160 54.523 -157.993
10000.000 47.819 38.286
