# Freq(Hz) SPL(dB) Phase (degrees)
10.000 -2.880 155.993
10.570 -1.917 154.624
11.180 -0.943 153.160
11.820 0.024 151.624
12.500 0.996 149.992
13.210 1.955 148.287
13.970 2.927 146.463
14.770 3.894 144.543
15.620 4.865 142.502
16.510 5.828 140.366
17.460 6.799 138.086
18.460 7.766 135.685
19.510 8.727 133.165
20.630 9.696 130.476
21.810 10.662 127.644
23.060 11.629 124.644
24.380 12.595 121.475
25.780 13.564 118.115
27.260 14.533 114.562
28.820 15.499 110.818
30.470 16.465 106.858
32.220 17.434 102.658
34.060 18.397 98.242
36.010 19.362 93.561
38.080 20.332 88.594
40.260 21.297 83.362
42.560 22.260 77.842
45.000 23.225 71.987
47.580 24.191 65.796
50.310 25.157 59.245
53.190 26.121 52.334
56.230 27.083 45.040
59.460 28.049 37.290
62.860 29.010 29.133
66.460 29.972 20.496
70.270 30.935 11.356
74.300 31.897 1.689
78.550 32.857 -8.505
83.050 33.816 -19.299
87.810 34.776 -30.715
92.840 35.734 -42.779
98.160 36.692 -55.537
103.780 37.647 -69.015
109.730 38.603 -83.284
116.020 39.557 -98.368
122.660 40.508 -114.292
129.690 41.459 -131.151
137.120 42.407 -148.970
144.970 43.352 -167.799
153.280 44.296 172.268
162.060 45.236 151.204
171.340 46.172 128.938
181.160 47.104 105.374
191.540 48.031 80.463
202.510 48.950 54.134
214.110 49.862 26.294
226.380 50.764 -3.149
239.350 51.655 -34.260
253.060 52.532 -67.125
267.560 53.394 -101.849
282.890 54.239 -138.508
299.090 55.065 -177.170
316.230 55.872 142.028
334.340 56.660 99.052
353.500 57.433 53.751
373.750 58.195 6.071
395.160 58.953 -44.123
417.800 59.717 -96.979
441.730 60.498 -152.642
467.040 61.308 148.640
493.800 62.158 86.635
522.090 63.052 21.068
552.000 63.994 -48.366
583.620 64.983 -121.972
617.050 66.018 159.908
652.400 67.092 76.881
689.780 68.194 -11.465
729.290 69.296 -105.514
771.080 70.360 154.275
815.250 71.338 47.659
861.950 72.173 -65.575
911.330 72.822 174.505
963.540 73.258 48.016
1018.740 73.473 -85.071
1077.110 73.481 135.451
1138.810 73.358 -10.195
1204.050 73.251 -162.304
1273.030 73.285 37.935
1345.960 73.461 -130.831
1423.070 73.697 50.142
1504.590 73.889 -139.615
1590.790 73.954 19.495
1681.920 73.836 167.618
1778.280 73.566 -54.955
1880.150 73.369 71.557
1987.870 73.472 -174.340
2101.750 73.822 -75.985
2222.150 74.098 4.937
2349.460 73.969 68.829
2484.060 73.404 117.431
2626.360 72.763 151.889
2776.820 72.628 168.872
2935.900 72.635 162.726
3104.100 72.125 133.828
3281.930 70.967 86.058
3469.940 70.192 19.998
3668.730 70.165 -71.218
3878.910 69.953 165.309
4101.130 68.755 13.692
4336.070 67.059 -160.711
4584.480 65.698 -2.009
4847.120 65.067 129.038
5124.810 65.599 -139.605
5418.400 64.426 -95.795
5728.810 62.222 -79.250
6057.010 63.248 -96.158
6404.000 63.591 -179.057
6770.880 60.498 26.714
7158.770 55.854 -99.191
7568.890 56.556 46.791
8002.500 58.032 133.039
8460.950 48.795 164.677
8945.670 46.721 -130.336
9458.160 49.751 168.151
10000.000 43.964 -28.790
