# Freq(Hz) SPL(dB) Phase (degrees)
10.000 -3.177 155.181
10.570 -2.214 153.766
11.180 -1.239 152.253
11.820 -0.272 150.664
12.500 0.699 148.977
13.210 1.659 147.215
13.970 2.631 145.329
14.770 3.598 143.343
15.620 4.571 141.234
16.510 5.533 139.025
17.460 6.505 136.668
18.460 7.473 134.186
19.510 8.434 131.580
20.630 9.404 128.801
21.810 10.370 125.872
23.060 11.338 122.770
24.380 12.306 119.494
25.780 13.276 116.020
27.260 14.246 112.347
28.820 15.213 108.475
30.470 16.180 104.380
32.220 17.151 100.037
34.060 18.116 95.471
36.010 19.083 90.631
38.080 20.055 85.494
40.260 21.022 80.083
42.560 21.988 74.375
45.000 22.957 68.319
47.580 23.926 61.916
50.310 24.896 55.140
53.190 25.864 47.992
56.230 26.831 40.447
59.460 27.803 32.430
62.860 28.770 23.990
66.460 29.739 15.054
70.270 30.709 5.596
74.300 31.680 -4.409
78.550 32.649 -14.960
83.050 33.620 -26.133
87.810 34.591 -37.953
92.840 35.562 -50.445
98.160 36.534 -63.659
103.780 37.506 -77.620
109.730 38.480 -92.404
116.020 39.455 -108.037
122.660 40.428 -124.544
129.690 41.404 -142.027
137.120 42.381 -160.512
144.970 43.357 179.949
153.280 44.336 159.254
162.060 45.314 137.376
171.340 46.293 114.237
181.160 47.273 89.734
191.540 48.253 63.812
202.510 49.231 36.395
214.110 50.209 7.377
226.380 51.184 -23.342
239.350 52.156 -55.842
253.060 53.122 -90.221
267.560 54.083 -126.604
282.890 55.036 -165.088
299.090 55.980 154.231
316.230 56.916 111.185
334.340 57.841 65.703
353.500 58.757 17.586
373.750 59.663 -33.271
395.160 60.560 -87.058
417.800 61.445 -143.976
441.730 62.315 155.789
467.040 63.159 91.977
493.800 63.962 24.404
522.090 64.701 -47.080
552.000 65.357 -122.555
583.620 65.922 157.998
617.050 66.410 74.606
652.400 66.862 -12.806
689.780 67.332 -104.501
729.290 67.866 159.080
771.080 68.484 57.262
815.250 69.186 -50.501
861.950 69.960 -164.832
911.330 70.787 73.648
963.540 71.632 -55.734
1018.740 72.441 166.331
1077.110 73.102 19.229
1138.810 73.479 -137.096
1204.050 73.481 57.758
1273.030 73.123 -115.716
1345.960 72.446 62.630
1423.070 71.522 -127.022
1504.590 70.457 35.388
1590.790 69.440 -170.272
1681.920 68.765 -24.990
1778.280 68.755 108.423
1880.150 69.190 -135.105
1987.870 69.537 -37.568
2101.750 69.253 42.058
2222.150 68.225 105.291
2349.460 66.256 152.809
2484.060 62.954 -173.303
2626.360 57.976 -136.603
2776.820 58.928 -94.710
2935.900 62.340 -111.662
3104.100 63.703 -166.620
3281.930 62.719 108.770
3469.940 57.733 -2.356
3668.730 45.992 -62.415
3878.910 55.173 -170.588
4101.130 57.370 -20.634
4336.070 52.065 75.466
4584.480 54.688 96.015
4847.120 57.905 135.619
5124.810 53.676 171.113
5418.400 53.462 -124.259
5728.810 58.568 -149.166
6057.010 56.549 103.552
6404.000 48.754 74.750
6770.880 53.915 -101.554
7158.770 49.906 33.744
7568.890 57.831 -161.295
8002.500 53.053 -100.829
8460.950 51.860 -76.798
8945.670 52.924 -155.070
9458.160 52.572 82.890
10000.000 50.816 -135.398
