# Freq(Hz) SPL(dB) Phase (degrees)
10.000 -0.822 160.888
10.570 0.141 159.799
11.180 1.116 158.634
11.820 2.083 157.411
12.500 3.055 156.112
13.210 4.014 154.756
13.970 4.986 153.304
14.770 5.954 151.776
15.620 6.926 150.153
16.510 7.889 148.453
17.460 8.861 146.639
18.460 9.828 144.730
19.510 10.790 142.725
20.630 11.759 140.587
21.810 12.726 138.334
23.060 13.694 135.948
24.380 14.662 133.429
25.780 15.632 130.758
27.260 16.602 127.935
28.820 17.570 124.959
30.470 18.537 121.813
32.220 19.508 118.477
34.060 20.474 114.970
36.010 21.442 111.255
38.080 22.414 107.312
40.260 23.383 103.161
42.560 24.350 98.784
45.000 25.321 94.142
47.580 26.292 89.236
50.310 27.264 84.047
53.190 28.235 78.577
56.230 29.206 72.805
59.460 30.182 66.677
62.860 31.154 60.230
66.460 32.130 53.408
70.270 33.109 46.194
74.300 34.090 38.568
78.550 35.071 30.531
83.050 36.057 22.026
87.810 37.047 13.035
92.840 38.041 3.539
98.160 39.040 -6.502
103.780 40.045 -17.108
109.730 41.059 -28.338
116.020 42.081 -40.215
122.660 43.112 -52.763
129.690 44.155 -66.066
137.120 45.210 -80.152
144.970 46.279 -95.071
153.280 47.364 -110.914
162.060 48.465 -127.718
171.340 49.581 -145.560
181.160 50.715 -164.540
191.540 51.865 175.280
202.510 53.028 153.818
214.110 54.203 130.975
226.380 55.386 106.654
239.350 56.573 80.782
253.060 57.759 53.276
267.560 58.937 24.045
282.890 60.104 -6.973
299.090 61.253 -39.822
316.230 62.383 -74.596
334.340 63.494 -111.293
353.500 64.589 -150.006
373.750 65.680 169.244
395.160 66.781 126.354
417.800 67.914 81.164
441.730 69.102 33.456
467.040 70.361 -17.152
493.800 71.690 -71.079
522.090 73.061 -128.760
552.000 74.422 169.468
583.620 75.714 103.486
617.050 76.890 33.365
652.400 77.933 -40.725
689.780 78.863 -118.625
729.290 79.724 159.702
771.080 80.577 73.951
815.250 81.462 -16.347
861.950 82.377 -111.861
911.330 83.281 146.939
963.540 84.143 39.891
1018.740 84.985 -73.235
1077.110 85.826 166.866
1138.810 86.588 39.474
1204.050 87.159 -95.464
1273.030 87.535 122.421
1345.960 87.780 -27.040
1423.070 87.919 175.574
1504.590 87.926 9.861
1590.790 87.790 -164.447
1681.920 87.539 12.590
1778.280 87.257 -179.457
1880.150 86.994 -21.341
1987.870 86.845 125.884
2101.750 86.738 -99.682
2222.150 86.440 21.855
2349.460 86.002 130.834
2484.060 85.473 -133.261
2626.360 84.958 -50.189
2776.820 84.781 17.967
2935.900 84.850 68.357
3104.100 84.873 98.592
3281.930 84.402 109.897
3469.940 83.729 105.844
3668.730 83.763 83.673
3878.910 84.400 34.682
4101.130 84.418 -40.730
4336.070 84.023 -138.882
4584.480 83.910 99.447
4847.120 84.034 -51.513
5124.810 83.532 128.521
5418.400 83.663 -76.850
5728.810 84.470 41.081
6057.010 84.837 121.035
6404.000 85.477 165.629
6770.880 85.795 167.480
7158.770 85.666 131.053
7568.890 85.852 49.108
8002.500 85.815 -75.345
8460.950 85.842 110.175
8945.670 85.385 -115.461
9458.160 85.082 -32.929
10000.000 84.747 -6.788
