# Freq(Hz) SPL(dB) Phase (degrees)
10.000 -0.838 160.855
10.570 0.125 159.764
11.180 1.100 158.597
11.820 2.067 157.372
12.500 3.039 156.071
13.210 3.998 154.712
13.970 4.970 153.258
14.770 5.938 151.727
15.620 6.910 150.101
16.510 7.873 148.398
17.460 8.845 146.581
18.460 9.812 144.668
19.510 10.773 142.660
20.630 11.743 140.518
21.810 12.710 138.261
23.060 13.678 135.871
24.380 14.645 133.348
25.780 15.616 130.672
27.260 16.586 127.844
28.820 17.553 124.863
30.470 18.521 121.711
32.220 19.492 118.369
34.060 20.457 114.856
36.010 21.425 111.134
38.080 22.398 107.185
40.260 23.366 103.027
42.560 24.333 98.642
45.000 25.303 93.992
47.580 26.274 89.077
50.310 27.247 83.879
53.190 28.217 78.399
56.230 29.187 72.618
59.460 30.163 66.479
62.860 31.136 60.021
66.460 32.111 53.187
70.270 33.090 45.960
74.300 34.070 38.321
78.550 35.051 30.271
83.050 36.036 21.752
87.810 37.025 12.746
92.840 38.019 3.234
98.160 39.017 -6.823
103.780 40.022 -17.445
109.730 41.034 -28.692
116.020 42.055 -40.587
122.660 43.085 -53.154
129.690 44.127 -66.475
137.120 45.181 -80.579
144.970 46.248 -95.517
153.280 47.331 -111.378
162.060 48.430 -128.200
171.340 49.545 -146.061
181.160 50.678 -165.059
191.540 51.826 174.743
202.510 52.988 153.264
214.110 54.162 130.402
226.380 55.345 106.060
239.350 56.531 80.167
253.060 57.717 52.638
267.560 58.896 23.378
282.890 60.063 -7.672
299.090 61.213 -40.561
316.230 62.345 -75.382
334.340 63.456 -112.135
353.500 64.552 -150.916
373.750 65.640 168.257
395.160 66.738 125.281
417.800 67.865 80.004
441.730 69.043 32.214
467.040 70.289 -18.457
493.800 71.604 -72.418
522.090 72.963 -130.104
552.000 74.316 168.141
583.620 75.604 102.180
617.050 76.782 32.066
652.400 77.831 -42.046
689.780 78.766 -120.009
729.290 79.630 158.216
771.080 80.480 72.340
815.250 81.355 -18.072
861.950 82.255 -113.664
911.330 83.144 145.099
963.540 83.995 38.036
1018.740 84.830 -75.100
1077.110 85.666 164.997
1138.810 86.424 37.600
1204.050 86.994 -97.359
1273.030 87.367 120.498
1345.960 87.607 -28.973
1423.070 87.740 173.674
1504.590 87.743 8.063
1590.790 87.616 -166.043
1681.920 87.404 11.241
1778.280 87.193 179.313
1880.150 87.010 -22.700
1987.870 86.916 124.319
2101.750 86.884 -101.298
2222.150 86.714 19.969
2349.460 86.404 128.230
2484.060 85.982 -136.846
2626.360 85.558 -55.141
2776.820 85.410 11.226
2935.900 85.355 59.667
3104.100 85.200 89.117
3281.930 84.685 99.244
3469.940 83.743 93.188
3668.730 83.288 70.516
3878.910 83.496 23.645
4101.130 83.426 -48.547
4336.070 83.324 -144.866
4584.480 83.458 94.714
4847.120 83.948 -56.101
5124.810 84.060 122.621
5418.400 84.292 -88.042
5728.810 84.861 27.073
6057.010 85.025 104.799
6404.000 85.045 148.368
6770.880 85.088 151.181
7158.770 84.947 117.352
7568.890 85.447 38.724
8002.500 85.794 -88.167
8460.950 85.885 95.144
8945.670 85.049 -133.941
9458.160 84.715 -52.707
10000.000 84.339 -25.712
