# Freq(Hz) SPL(dB) Phase (degrees)
10.000 -2.297 157.503
10.570 -1.335 156.221
11.180 -0.360 154.849
11.820 0.606 153.410
12.500 1.578 151.880
13.210 2.537 150.283
13.970 3.508 148.574
14.770 4.475 146.775
15.620 5.446 144.863
16.510 6.408 142.862
17.460 7.379 140.725
18.460 8.346 138.476
19.510 9.306 136.115
20.630 10.274 133.597
21.810 11.239 130.943
23.060 12.206 128.133
24.380 13.172 125.165
25.780 14.140 122.018
27.260 15.107 118.691
28.820 16.072 115.184
30.470 17.037 111.476
32.220 18.004 107.543
34.060 18.966 103.408
36.010 19.930 99.026
38.080 20.897 94.376
40.260 21.860 89.479
42.560 22.820 84.314
45.000 23.783 78.835
47.580 24.746 73.043
50.310 25.709 66.916
53.190 26.669 60.454
56.230 27.627 53.634
59.460 28.588 46.391
62.860 29.545 38.769
66.460 30.502 30.702
70.270 31.459 22.168
74.300 32.415 13.145
78.550 33.367 3.634
83.050 34.320 -6.430
87.810 35.271 -17.070
92.840 36.221 -28.306
98.160 37.169 -40.181
103.780 38.115 -52.717
109.730 39.061 -65.977
116.020 40.004 -79.983
122.660 40.945 -94.755
129.690 41.885 -110.378
137.120 42.824 -126.873
144.970 43.760 -144.280
153.280 44.696 -162.686
162.060 45.631 177.891
171.340 46.565 157.389
181.160 47.500 135.724
191.540 48.436 112.855
202.510 49.373 88.722
214.110 50.313 63.241
226.380 51.258 36.329
239.350 52.210 7.923
253.060 53.172 -22.060
267.560 54.147 -53.732
282.890 55.140 -87.185
299.090 56.156 -122.520
316.230 57.203 -159.918
334.340 58.285 160.512
353.500 59.411 118.529
373.750 60.583 73.953
395.160 61.804 26.514
417.800 63.067 -24.083
441.730 64.358 -78.114
467.040 65.656 -135.913
493.800 66.925 162.284
522.090 68.125 96.299
552.000 69.212 26.051
583.620 70.154 -48.427
617.050 70.934 -127.055
652.400 71.557 150.211
689.780 72.037 63.344
729.290 72.388 -27.731
771.080 72.620 -123.202
815.250 72.739 136.956
861.950 72.785 32.776
911.330 72.847 -75.809
963.540 73.065 170.544
1018.740 73.490 50.545
1077.110 74.056 -77.236
1138.810 74.611 146.576
1204.050 75.032 1.973
1273.030 75.282 -150.687
1345.960 75.413 48.850
1423.070 75.540 -119.713
1504.590 75.758 62.703
1590.790 76.074 -125.270
1681.920 76.413 35.343
1778.280 76.660 -176.143
1880.150 76.728 -39.601
1987.870 76.732 84.922
2101.750 76.715 -164.239
2222.150 76.450 -67.931
2349.460 75.920 15.269
2484.060 75.415 85.480
2626.360 75.246 139.494
2776.820 75.135 174.751
2935.900 74.836 -168.551
3104.100 74.527 -169.764
3281.930 74.528 168.762
3469.940 74.758 123.134
3668.730 74.518 51.599
3878.910 73.814 -41.519
4101.130 73.425 -159.072
4336.070 72.607 56.126
4584.480 72.571 -111.833
4847.120 73.096 40.694
5124.810 72.238 160.197
5418.400 71.605 -110.722
5728.810 70.698 -57.883
6057.010 70.153 -36.863
6404.000 70.236 -66.798
6770.880 69.100 -135.397
7158.770 67.911 112.304
7568.890 67.219 -44.359
8002.500 66.557 101.314
8460.950 64.850 -162.280
8945.670 64.197 -124.906
9458.160 60.907 -143.602
10000.000 58.667 125.410
