# Freq(Hz) SPL(dB) Phase (degrees)
10.000 -1.216 160.042
10.570 -0.253 158.905
11.180 0.722 157.688
11.820 1.689 156.411
12.500 2.660 155.054
13.210 3.620 153.638
13.970 4.591 152.122
14.770 5.558 150.526
15.620 6.530 148.830
16.510 7.492 147.055
17.460 8.464 145.161
18.460 9.431 143.167
19.510 10.392 141.073
20.630 11.361 138.840
21.810 12.327 136.487
23.060 13.294 133.996
24.380 14.261 131.365
25.780 15.230 128.575
27.260 16.199 125.626
28.820 17.165 122.519
30.470 18.131 119.232
32.220 19.101 115.748
34.060 20.064 112.085
36.010 21.031 108.204
38.080 22.000 104.086
40.260 22.966 99.751
42.560 23.930 95.179
45.000 24.898 90.330
47.580 25.865 85.206
50.310 26.833 79.786
53.190 27.799 74.072
56.230 28.764 68.044
59.460 29.734 61.644
62.860 30.700 54.912
66.460 31.668 47.788
70.270 32.637 40.256
74.300 33.608 32.295
78.550 34.577 23.907
83.050 35.550 15.033
87.810 36.525 5.656
92.840 37.502 -4.244
98.160 38.482 -14.707
103.780 39.465 -25.750
109.730 40.455 -37.433
116.020 41.450 -49.777
122.660 42.451 -62.804
129.690 43.461 -76.596
137.120 44.481 -91.176
144.970 45.511 -106.593
153.280 46.555 -122.934
162.060 47.613 -140.232
171.340 48.687 -158.562
181.160 49.778 -178.021
191.540 50.886 161.327
202.510 52.012 139.399
214.110 53.154 116.089
226.380 54.312 91.289
239.350 55.482 64.915
253.060 56.661 36.865
267.560 57.845 7.020
282.890 59.027 -24.708
299.090 60.203 -58.400
316.230 61.368 -94.189
334.340 62.515 -132.117
353.500 63.644 -172.320
373.750 64.749 145.153
395.160 65.831 100.194
417.800 66.891 52.694
441.730 67.929 2.565
467.040 68.952 -50.348
493.800 69.965 -106.168
522.090 70.979 -165.060
552.000 72.002 132.750
583.620 73.042 66.988
617.050 74.098 -2.674
652.400 75.156 -76.575
689.780 76.197 -155.010
729.290 77.193 121.815
771.080 78.120 33.661
815.250 78.954 -59.520
861.950 79.687 -157.809
911.330 80.331 98.743
963.540 80.913 -9.987
1018.740 81.493 -124.321
1077.110 82.108 115.047
1138.810 82.729 -12.729
1204.050 83.257 -148.129
1273.030 83.635 69.055
1345.960 83.912 -81.055
1423.070 84.163 121.133
1504.590 84.411 -45.045
1590.790 84.672 139.871
1681.920 84.986 -44.694
1778.280 85.380 120.334
1880.150 85.862 -86.019
1987.870 86.381 54.994
2101.750 86.803 -177.458
2222.150 87.028 -63.280
2349.460 87.096 37.454
2484.060 87.079 124.192
2626.360 87.003 -164.089
2776.820 86.854 -108.291
2935.900 86.629 -68.884
3104.100 86.456 -46.473
3281.930 86.491 -43.297
3469.940 86.524 -61.731
3668.730 86.474 -101.806
3878.910 86.358 -165.118
4101.130 86.117 107.060
4336.070 85.575 -5.962
4584.480 84.968 -144.017
4847.120 84.135 50.152
5124.810 83.556 -143.039
5418.400 83.242 -7.850
5728.810 83.000 90.528
6057.010 82.322 153.479
6404.000 81.340 -178.696
6770.880 81.058 172.637
7158.770 80.588 121.382
7568.890 80.078 23.209
8002.500 79.757 -123.752
8460.950 78.902 46.082
8945.670 78.808 159.675
9458.160 77.998 -145.066
10000.000 77.255 -144.797
