# Freq(Hz) SPL(dB) Phase (degrees)
10.000 -2.739 156.369
10.570 -1.776 155.022
11.180 -0.801 153.581
11.820 0.165 152.069
12.500 1.137 150.462
13.210 2.096 148.785
13.970 3.068 146.989
14.770 4.034 145.099
15.620 5.006 143.091
16.510 5.968 140.988
17.460 6.940 138.743
18.460 7.906 136.381
19.510 8.867 133.900
20.630 9.836 131.254
21.810 10.801 128.466
23.060 11.768 125.513
24.380 12.734 122.395
25.780 13.703 119.087
27.260 14.671 115.591
28.820 15.637 111.906
30.470 16.602 108.008
32.220 17.570 103.874
34.060 18.533 99.528
36.010 19.498 94.922
38.080 20.466 90.033
40.260 21.431 84.885
42.560 22.392 79.453
45.000 23.357 73.691
47.580 24.322 67.599
50.310 25.287 61.154
53.190 26.249 54.354
56.230 27.209 47.178
59.460 28.173 39.554
62.860 29.133 31.529
66.460 30.093 23.034
70.270 31.053 14.044
74.300 32.012 4.536
78.550 32.969 -5.490
83.050 33.925 -16.103
87.810 34.881 -27.328
92.840 35.835 -39.187
98.160 36.788 -51.728
103.780 37.739 -64.974
109.730 38.689 -78.994
116.020 39.637 -93.813
122.660 40.581 -109.453
129.690 41.525 -126.008
137.120 42.465 -143.501
144.970 43.402 -161.979
153.280 44.337 178.466
162.060 45.267 157.809
171.340 46.192 135.982
181.160 47.113 112.894
191.540 48.028 88.498
202.510 48.935 62.730
214.110 49.834 35.501
226.380 50.725 6.725
239.350 51.604 -23.656
253.060 52.472 -55.720
267.560 53.328 -89.562
282.890 54.170 -125.250
299.090 55.001 -162.843
316.230 55.823 157.533
334.340 56.641 115.845
353.500 57.464 71.944
373.750 58.303 25.754
395.160 59.173 -22.895
417.800 60.092 -74.220
441.730 61.075 -128.472
467.040 62.131 173.969
493.800 63.257 112.734
522.090 64.433 47.445
552.000 65.630 -22.221
583.620 66.813 -96.486
617.050 67.959 -175.510
652.400 69.053 100.538
689.780 70.089 11.444
729.290 71.055 -83.042
771.080 71.929 176.697
815.250 72.672 70.468
861.950 73.240 -41.877
911.330 73.599 -160.325
963.540 73.752 75.322
1018.740 73.719 -54.925
1077.110 73.569 168.993
1138.810 73.406 26.845
1204.050 73.334 -122.235
1273.030 73.367 80.511
1345.960 73.438 -85.727
1423.070 73.473 98.608
1504.590 73.477 -86.422
1590.790 73.536 78.854
1681.920 73.795 -126.510
1778.280 74.315 15.450
1880.150 74.951 142.405
1987.870 75.392 -107.294
2101.750 75.155 -12.920
2222.150 74.038 68.093
2349.460 72.223 139.627
2484.060 70.795 -155.351
2626.360 71.082 -106.419
2776.820 71.854 -84.435
2935.900 71.970 -85.722
3104.100 71.616 -107.094
3281.930 71.005 -149.553
3469.940 69.919 145.590
3668.730 68.158 64.546
3878.910 68.576 -34.050
4101.130 70.124 -178.826
4336.070 68.729 0.523
4584.480 65.748 170.592
4847.120 66.121 -49.345
5124.810 65.312 49.463
5418.400 65.635 111.341
5728.810 61.578 123.979
6057.010 61.500 138.725
6404.000 60.466 74.115
6770.880 59.754 -8.487
7158.770 58.202 173.176
7568.890 55.736 -10.496
8002.500 57.709 129.987
8460.950 58.874 -170.648
8945.670 56.412 165.187
9458.160 56.164 136.142
10000.000 52.201 8.561
