# Freq(Hz) SPL(dB) Phase (degrees)
10.000 -2.198 157.750
10.570 -1.235 156.482
11.180 -0.261 155.125
11.820 0.706 153.701
12.500 1.677 152.189
13.210 2.636 150.609
13.970 3.607 148.919
14.770 4.574 147.139
15.620 5.545 145.249
16.510 6.507 143.269
17.460 7.478 141.156
18.460 8.445 138.932
19.510 9.405 136.597
20.630 10.373 134.106
21.810 11.338 131.482
23.060 12.305 128.703
24.380 13.270 125.768
25.780 14.239 122.655
27.260 15.206 119.365
28.820 16.171 115.897
30.470 17.136 112.230
32.220 18.103 108.341
34.060 19.065 104.252
36.010 20.028 99.919
38.080 20.995 95.321
40.260 21.958 90.479
42.560 22.919 85.372
45.000 23.882 79.954
47.580 24.845 74.228
50.310 25.807 68.170
53.190 26.767 61.781
56.230 27.725 55.039
59.460 28.687 47.879
62.860 29.643 40.345
66.460 30.600 32.371
70.270 31.557 23.936
74.300 32.513 15.019
78.550 33.466 5.620
83.050 34.419 -4.325
87.810 35.371 -14.838
92.840 36.321 -25.938
98.160 37.270 -37.669
103.780 38.217 -50.051
109.730 39.164 -63.147
116.020 40.109 -76.978
122.660 41.052 -91.563
129.690 41.995 -106.988
137.120 42.937 -123.270
144.970 43.878 -140.452
153.280 44.820 -158.618
162.060 45.762 -177.786
171.340 46.706 161.982
181.160 47.652 140.600
191.540 48.601 118.029
202.510 49.555 94.205
214.110 50.515 69.043
226.380 51.484 42.456
239.350 52.464 14.376
253.060 53.458 -15.288
267.560 54.470 -46.654
282.890 55.504 -79.824
299.090 56.564 -114.911
316.230 57.655 -152.103
334.340 58.781 168.484
353.500 59.946 126.605
373.750 61.150 82.086
395.160 62.392 34.666
417.800 63.662 -15.929
441.730 64.945 -69.954
467.040 66.218 -127.712
493.800 67.444 170.588
522.090 68.584 104.800
552.000 69.596 34.873
583.620 70.448 -39.124
617.050 71.129 -117.072
652.400 71.646 161.117
689.780 72.024 75.464
729.290 72.290 -14.065
771.080 72.476 -107.643
815.250 72.619 154.690
861.950 72.789 52.728
911.330 73.081 -54.051
963.540 73.570 -166.771
1018.740 74.203 73.338
1077.110 74.853 -54.603
1138.810 75.386 169.355
1204.050 75.739 25.455
1273.030 75.925 -125.946
1345.960 76.038 75.240
1423.070 76.206 -91.564
1504.590 76.509 92.479
1590.790 76.927 -94.046
1681.920 77.369 67.728
1778.280 77.675 -142.885
1880.150 77.733 -5.478
1987.870 77.616 119.962
2101.750 77.330 -127.065
2222.150 76.921 -26.452
2349.460 76.658 60.884
2484.060 76.530 132.815
2626.360 76.348 -172.309
2776.820 76.107 -133.779
2935.900 76.084 -112.874
3104.100 76.212 -113.171
3281.930 76.040 -135.063
3469.940 75.771 -177.179
3668.730 75.579 117.858
3878.910 75.308 28.040
4101.130 74.746 -86.748
4336.070 74.471 135.194
4584.480 74.653 -36.325
4847.120 74.207 122.163
5124.810 73.923 -110.614
5418.400 73.254 -18.891
5728.810 72.510 41.451
6057.010 72.251 61.728
6404.000 71.647 41.317
6770.880 70.784 -22.294
7158.770 70.193 -127.416
7568.890 69.242 78.190
8002.500 68.156 -127.318
8460.950 66.891 -24.657
8945.670 65.299 22.814
9458.160 63.701 14.515
10000.000 61.014 -58.019
