# Freq(Hz) SPL(dB) Phase (degrees)
10.000 -2.970 155.750
10.570 -2.007 154.368
11.180 -1.032 152.889
11.820 -0.065 151.338
12.500 0.907 149.689
13.210 1.866 147.967
13.970 2.838 146.125
14.770 3.805 144.185
15.620 4.777 142.124
16.510 5.739 139.966
17.460 6.711 137.663
18.460 7.678 135.238
19.510 8.639 132.692
20.630 9.609 129.977
21.810 10.575 127.116
23.060 11.542 124.085
24.380 12.509 120.884
25.780 13.479 117.490
27.260 14.448 113.902
28.820 15.414 110.119
30.470 16.381 106.119
32.220 17.350 101.876
34.060 18.315 97.415
36.010 19.281 92.687
38.080 20.251 87.669
40.260 21.217 82.384
42.560 22.182 76.808
45.000 23.149 70.893
47.580 24.116 64.638
50.310 25.084 58.020
53.190 26.050 51.038
56.230 27.014 43.669
59.460 27.982 35.840
62.860 28.947 27.598
66.460 29.912 18.872
70.270 30.878 9.636
74.300 31.844 -0.132
78.550 32.808 -10.433
83.050 33.773 -21.341
87.810 34.738 -32.879
92.840 35.703 -45.071
98.160 36.667 -57.967
103.780 37.630 -71.591
109.730 38.595 -86.016
116.020 39.559 -101.267
122.660 40.521 -117.368
129.690 41.484 -134.419
137.120 42.446 -152.443
144.970 43.407 -171.491
153.280 44.368 168.338
162.060 45.328 147.019
171.340 46.285 124.476
181.160 47.242 100.611
191.540 48.196 75.373
202.510 49.147 48.687
214.110 50.093 20.456
226.380 51.034 -9.419
239.350 51.968 -41.008
253.060 52.894 -74.404
267.560 53.811 -109.724
282.890 54.716 -147.055
299.090 55.610 173.516
316.230 56.492 131.833
334.340 57.362 87.832
353.500 58.221 41.327
373.750 59.070 -7.781
395.160 59.911 -59.670
417.800 60.740 -114.530
441.730 61.553 -172.521
467.040 62.341 126.145
493.800 63.094 61.355
522.090 63.804 -6.953
552.000 64.484 -78.811
583.620 65.173 -154.307
617.050 65.928 126.198
652.400 66.786 41.988
689.780 67.722 -47.779
729.290 68.655 -143.694
771.080 69.494 113.906
815.250 70.164 5.071
861.950 70.621 -110.149
911.330 70.836 128.360
963.540 70.795 0.841
1018.740 70.534 -132.384
1077.110 70.155 89.062
1138.810 69.882 -54.903
1204.050 69.966 154.078
1273.030 70.463 -6.807
1345.960 71.129 179.968
1423.070 71.614 -6.758
1504.590 71.580 153.092
1590.790 70.733 -59.669
1681.920 68.751 76.742
1778.280 65.402 -153.888
1880.150 61.150 -20.760
1987.870 59.577 113.961
2101.750 60.055 -142.836
2222.150 57.946 -69.010
2349.460 46.806 -2.412
2484.060 56.718 179.734
2626.360 63.979 -166.036
2776.820 66.434 -172.960
2935.900 66.329 168.327
3104.100 65.754 147.269
3281.930 67.996 101.015
3469.940 69.595 15.961
3668.730 68.475 -94.879
3878.910 66.839 150.275
4101.130 68.810 4.715
4336.070 68.430 170.531
4584.480 66.997 -36.588
4847.120 68.968 82.618
5124.810 68.534 148.884
5418.400 67.916 -161.286
5728.810 68.140 -168.276
6057.010 64.998 152.074
6404.000 65.170 61.258
6770.880 60.318 -67.583
7158.770 56.396 131.147
7568.890 47.933 -67.524
8002.500 55.193 144.390
8460.950 57.899 145.012
8945.670 60.517 115.816
9458.160 57.305 -16.651
10000.000 58.301 168.736
