# Freq(Hz) SPL(dB) Phase (degrees)
10.000 -0.664 161.217
10.570 0.299 160.147
11.180 1.274 159.001
11.820 2.241 157.800
12.500 3.213 156.523
13.210 4.173 155.190
13.970 5.144 153.764
14.770 6.112 152.262
15.620 7.084 150.666
16.510 8.047 148.996
17.460 9.019 147.213
18.460 9.987 145.336
19.510 10.949 143.366
20.630 11.919 141.265
21.810 12.886 139.051
23.060 13.854 136.706
24.380 14.822 134.230
25.780 15.793 131.605
27.260 16.763 128.830
28.820 17.731 125.906
30.470 18.699 122.814
32.220 19.671 119.535
34.060 20.637 116.089
36.010 21.606 112.437
38.080 22.579 108.562
40.260 23.549 104.483
42.560 24.516 100.180
45.000 25.488 95.618
47.580 26.461 90.796
50.310 27.435 85.696
53.190 28.407 80.319
56.230 29.379 74.645
59.460 30.358 68.621
62.860 31.333 62.283
66.460 32.311 55.577
70.270 33.293 48.483
74.300 34.278 40.984
78.550 35.263 33.079
83.050 36.253 24.713
87.810 37.248 15.867
92.840 38.247 6.522
98.160 39.253 -3.363
103.780 40.265 -13.807
109.730 41.286 -24.871
116.020 42.316 -36.577
122.660 43.355 -48.952
129.690 44.408 -62.078
137.120 45.473 -75.986
144.970 46.552 -90.727
153.280 47.647 -106.392
162.060 48.757 -123.019
171.340 49.882 -140.685
181.160 51.024 -159.488
191.540 52.179 -179.491
202.510 53.345 159.228
214.110 54.520 136.571
226.380 55.700 112.447
239.350 56.880 86.790
253.060 58.054 59.521
267.560 59.217 30.558
282.890 60.363 -0.154
299.090 61.489 -32.652
316.230 62.593 -67.021
334.340 63.676 -103.254
353.500 64.745 -141.447
373.750 65.810 178.378
395.160 66.890 136.098
417.800 68.005 91.536
441.730 69.173 44.447
467.040 70.404 -5.555
493.800 71.688 -58.860
522.090 72.990 -115.829
552.000 74.259 -176.687
583.620 75.445 118.564
617.050 76.525 50.078
652.400 77.517 -21.992
689.780 78.468 -97.670
729.290 79.433 -177.238
771.080 80.439 98.715
815.250 81.475 9.685
861.950 82.507 -84.797
911.330 83.504 174.976
963.540 84.447 68.778
1018.740 85.333 -43.769
1077.110 86.122 -163.188
1138.810 86.727 70.326
1204.050 87.097 -62.950
1273.030 87.284 157.290
1345.960 87.368 10.724
1423.070 87.376 -143.105
1504.590 87.385 55.613
1590.790 87.519 -114.527
1681.920 87.628 64.807
1778.280 87.532 -126.243
1880.150 87.262 32.607
1987.870 86.804 -179.437
2101.750 86.037 -41.710
2222.150 85.284 87.451
2349.460 85.042 -155.246
2484.060 85.080 -53.315
2626.360 85.088 32.054
2776.820 84.851 101.440
2935.900 84.360 156.331
3104.100 84.246 -163.688
3281.930 84.593 -144.801
3469.940 84.369 -148.145
3668.730 83.797 -167.011
3878.910 84.213 153.360
4101.130 84.523 85.293
4336.070 84.168 -6.037
4584.480 84.148 -119.205
4847.120 84.482 97.457
5124.810 84.101 -73.360
5418.400 84.808 89.198
5728.810 85.471 -146.255
6057.010 86.248 -56.371
6404.000 87.216 -6.677
6770.880 87.268 5.170
7158.770 87.184 -25.046
7568.890 86.366 -96.156
8002.500 85.582 148.695
8460.950 84.768 -5.826
8945.670 84.211 146.738
9458.160 84.219 -111.207
10000.000 84.266 -66.599
