# Freq(Hz) SPL(dB) Phase (degrees)
10.000 -1.963 158.322
10.570 -1.001 157.086
11.180 -0.026 155.764
11.820 0.940 154.377
12.500 1.912 152.904
13.210 2.871 151.365
13.970 3.842 149.718
14.770 4.809 147.985
15.620 5.781 146.143
16.510 6.743 144.214
17.460 7.714 142.156
18.460 8.680 139.989
19.510 9.640 137.715
20.630 10.609 135.288
21.810 11.574 132.732
23.060 12.541 130.025
24.380 13.507 127.166
25.780 14.475 124.134
27.260 15.443 120.929
28.820 16.408 117.552
30.470 17.372 113.980
32.220 18.340 110.193
34.060 19.302 106.211
36.010 20.266 101.992
38.080 21.234 97.514
40.260 22.197 92.800
42.560 23.158 87.827
45.000 24.122 82.554
47.580 25.086 76.979
50.310 26.050 71.083
53.190 27.011 64.865
56.230 27.970 58.305
59.460 28.933 51.338
62.860 29.891 44.009
66.460 30.850 36.253
70.270 31.809 28.050
74.300 32.768 19.380
78.550 33.724 10.243
83.050 34.681 0.578
87.810 35.638 -9.637
92.840 36.593 -20.420
98.160 37.549 -31.813
103.780 38.504 -43.835
109.730 39.461 -56.547
116.020 40.417 -69.970
122.660 41.374 -84.120
129.690 42.334 -99.083
137.120 43.296 -114.876
144.970 44.261 -131.541
153.280 45.232 -149.161
162.060 46.209 -167.759
171.340 47.193 172.601
181.160 48.188 151.830
191.540 49.195 129.879
202.510 50.215 106.673
214.110 51.251 82.114
226.380 52.306 56.097
239.350 53.381 28.534
253.060 54.475 -0.689
267.560 55.590 -31.710
282.890 56.723 -64.648
299.090 57.871 -99.619
316.230 59.030 -136.799
334.340 60.194 -176.270
353.500 61.355 141.793
373.750 62.508 97.317
395.160 63.644 50.186
417.800 64.759 0.303
441.730 65.853 -52.382
467.040 66.932 -107.974
493.800 68.010 -166.549
522.090 69.112 131.742
552.000 70.266 66.620
583.620 71.491 -2.302
617.050 72.789 -75.496
652.400 74.145 -153.434
689.780 75.530 123.473
729.290 76.909 34.898
771.080 78.240 -59.529
815.250 79.472 -159.941
861.950 80.566 93.577
911.330 81.499 -18.930
963.540 82.290 -137.410
1018.740 82.980 98.001
1077.110 83.614 -33.130
1138.810 84.215 -171.321
1204.050 84.772 42.832
1273.030 85.274 -111.356
1345.960 85.657 85.693
1423.070 85.880 -86.122
1504.590 85.970 93.194
1590.790 85.977 -96.746
1681.920 85.978 63.456
1778.280 85.990 -147.474
1880.150 85.916 -10.149
1987.870 85.752 115.244
2101.750 85.583 -131.811
2222.150 85.431 -32.416
2349.460 85.274 52.314
2484.060 85.089 121.705
2626.360 84.856 174.998
2776.820 84.648 -148.205
2935.900 84.622 -129.837
3104.100 84.617 -132.294
3281.930 84.431 -156.052
3469.940 84.092 158.788
3668.730 83.625 90.290
3878.910 82.711 -1.323
4101.130 81.811 -114.218
4336.070 81.164 106.450
4584.480 80.957 -60.468
4847.120 80.881 101.294
5124.810 81.011 -129.173
5418.400 81.290 -35.272
5728.810 81.748 22.335
6057.010 82.293 37.407
6404.000 82.208 10.296
6770.880 81.619 -57.816
7158.770 80.945 -170.821
7568.890 79.554 33.430
8002.500 79.115 -174.226
8460.950 78.452 -73.232
8945.670 77.781 -31.886
9458.160 76.607 -49.713
10000.000 74.964 -125.286
