# Freq(Hz) SPL(dB) Phase (degrees)
10.000 -0.659 161.228
10.570 0.304 160.159
11.180 1.278 159.014
11.820 2.245 157.813
12.500 3.217 156.537
13.210 4.177 155.205
13.970 5.149 153.779
14.770 6.116 152.278
15.620 7.088 150.684
16.510 8.051 149.014
17.460 9.023 147.233
18.460 9.990 145.357
19.510 10.952 143.388
20.630 11.921 141.288
21.810 12.888 139.075
23.060 13.856 136.732
24.380 14.823 134.257
25.780 15.794 131.634
27.260 16.764 128.860
28.820 17.731 125.938
30.470 18.698 122.847
32.220 19.669 119.570
34.060 20.635 116.125
36.010 21.603 112.475
38.080 22.575 108.602
40.260 23.543 104.525
42.560 24.510 100.224
45.000 25.480 95.664
47.580 26.451 90.843
50.310 27.423 85.745
53.190 28.394 80.370
56.230 29.363 74.698
59.460 30.339 68.675
62.860 31.311 62.339
66.460 32.287 55.633
70.270 33.264 48.540
74.300 34.245 41.042
78.550 35.225 33.137
83.050 36.210 24.770
87.810 37.198 15.923
92.840 38.191 6.575
98.160 39.189 -3.313
103.780 40.191 -13.761
109.730 41.202 -24.830
116.020 42.220 -36.542
122.660 43.245 -48.924
129.690 44.282 -62.058
137.120 45.328 -75.973
144.970 46.385 -90.720
153.280 47.455 -106.388
162.060 48.537 -123.014
171.340 49.629 -140.671
181.160 50.733 -159.456
191.540 51.845 -179.425
202.510 52.962 159.346
214.110 54.083 136.767
226.380 55.202 112.752
239.350 56.314 87.241
253.060 57.415 60.164
267.560 58.499 31.440
282.890 59.562 1.025
299.090 60.598 -31.118
316.230 61.609 -65.070
334.340 62.594 -100.826
353.500 63.561 -138.479
373.750 64.519 -178.055
395.160 65.484 140.328
417.800 66.474 96.502
441.730 67.504 50.252
467.040 68.583 1.238
493.800 69.702 -50.861
522.090 70.838 -106.341
552.000 71.956 -165.400
583.620 73.028 131.907
617.050 74.046 65.597
652.400 75.028 -4.369
689.780 76.011 -78.218
729.290 77.017 -156.418
771.080 78.013 120.358
815.250 78.914 31.850
861.950 79.646 -61.725
911.330 80.239 -159.833
963.540 80.843 97.511
1018.740 81.583 -11.064
1077.110 82.323 -127.323
1138.810 82.777 108.660
1204.050 82.863 -21.658
1273.030 82.710 -157.738
1345.960 82.391 60.246
1423.070 82.053 -87.129
1504.590 82.146 118.228
1590.790 82.335 -48.874
1681.920 81.751 133.610
1778.280 80.650 -48.707
1880.150 79.861 123.721
1987.870 79.745 -73.016
2101.750 79.944 75.720
2222.150 79.742 -144.951
2349.460 80.889 -15.720
2484.060 82.403 90.348
2626.360 83.018 179.856
2776.820 83.659 -101.657
2935.900 84.999 -43.606
3104.100 85.566 -6.617
3281.930 85.998 14.973
3469.940 86.344 13.101
3668.730 85.783 -5.769
3878.910 85.736 -45.872
4101.130 84.664 -109.447
4336.070 84.084 167.811
4584.480 82.614 57.242
4847.120 81.169 -74.136
5124.810 78.931 139.362
5418.400 79.789 -36.275
5728.810 82.221 108.934
6057.010 83.833 -153.121
6404.000 84.017 -96.058
6770.880 83.600 -73.589
7158.770 82.518 -86.912
7568.890 80.721 -142.857
8002.500 79.255 123.921
8460.950 76.360 -4.781
8945.670 76.783 177.579
9458.160 77.458 -62.622
10000.000 77.322 -9.166
