# Freq(Hz) SPL(dB) Phase (degrees)
10.000 -1.007 160.496
10.570 -0.044 159.385
11.180 0.930 158.195
11.820 1.897 156.948
12.500 2.868 155.622
13.210 3.828 154.238
13.970 4.800 152.756
14.770 5.767 151.197
15.620 6.738 149.540
16.510 7.701 147.805
17.460 8.672 145.954
18.460 9.640 144.005
19.510 10.600 141.959
20.630 11.569 139.776
21.810 12.535 137.477
23.060 13.503 135.042
24.380 14.469 132.471
25.780 15.439 129.745
27.260 16.408 126.863
28.820 17.374 123.826
30.470 18.340 120.614
32.220 19.310 117.209
34.060 20.273 113.629
36.010 21.240 109.836
38.080 22.210 105.811
40.260 23.176 101.574
42.560 24.140 97.105
45.000 25.108 92.366
47.580 26.075 87.356
50.310 27.044 82.059
53.190 28.010 76.472
56.230 28.975 70.579
59.460 29.945 64.321
62.860 30.912 57.737
66.460 31.880 50.770
70.270 32.851 43.402
74.300 33.822 35.613
78.550 34.793 27.404
83.050 35.766 18.718
87.810 36.742 9.535
92.840 37.720 -0.164
98.160 38.702 -10.418
103.780 39.687 -21.247
109.730 40.677 -32.711
116.020 41.673 -44.833
122.660 42.673 -57.634
129.690 43.682 -71.199
137.120 44.698 -85.553
144.970 45.723 -100.745
153.280 46.758 -116.862
162.060 47.803 -133.938
171.340 48.858 -152.045
181.160 49.923 -171.279
191.540 50.996 168.305
202.510 52.076 146.631
214.110 53.161 123.605
226.380 54.247 99.137
239.350 55.331 73.162
253.060 56.407 45.600
267.560 57.471 16.362
282.890 58.520 -14.611
299.090 59.548 -47.368
316.230 60.554 -82.004
334.340 61.537 -118.525
353.500 62.501 -157.031
373.750 63.453 162.455
395.160 64.407 119.834
417.800 65.380 74.966
441.730 66.395 27.663
467.040 67.467 -22.417
493.800 68.600 -75.652
522.090 69.776 -132.465
552.000 70.953 166.775
583.620 72.074 101.855
617.050 73.080 32.750
652.400 73.929 -40.356
689.780 74.625 -117.103
729.290 75.237 162.799
771.080 75.885 78.966
815.250 76.620 -9.559
861.950 77.360 -103.717
911.330 77.984 156.462
963.540 78.501 51.530
1018.740 79.068 -58.718
1077.110 79.739 -176.090
1138.810 80.246 58.096
1204.050 80.290 -75.015
1273.030 79.968 146.885
1345.960 79.738 3.911
1423.070 79.792 -147.569
1504.590 79.618 50.324
1590.790 78.830 -119.608
1681.920 77.839 65.644
1778.280 77.143 -115.258
1880.150 77.086 55.406
1987.870 77.520 -148.344
2101.750 77.563 -3.472
2222.150 78.482 131.343
2349.460 79.678 -114.517
2484.060 80.137 -15.717
2626.360 80.529 70.950
2776.820 81.359 140.791
2935.900 81.790 -169.595
3104.100 81.945 -134.269
3281.930 82.668 -123.469
3469.940 81.999 -131.063
3668.730 81.536 -155.670
3878.910 80.508 156.940
4101.130 80.036 90.269
4336.070 78.415 -4.490
4584.480 76.764 -117.533
4847.120 74.287 115.141
5124.810 75.161 -40.198
5418.400 77.712 125.497
5728.810 79.263 -113.223
6057.010 79.769 -35.825
6404.000 79.003 8.246
6770.880 76.881 23.872
7158.770 75.270 4.790
7568.890 73.122 -57.969
8002.500 72.061 -167.849
8460.950 70.283 48.006
8945.670 71.403 -150.153
9458.160 71.278 -61.397
10000.000 69.056 -24.378
