# Freq(Hz) SPL(dB) Phase (degrees)
10.000 -2.941 155.831
10.570 -1.978 154.453
11.180 -1.003 152.979
11.820 -0.036 151.433
12.500 0.935 149.790
13.210 1.895 148.074
13.970 2.866 146.237
14.770 3.833 144.304
15.620 4.805 142.250
16.510 5.767 140.099
17.460 6.738 137.804
18.460 7.705 135.387
19.510 8.666 132.850
20.630 9.635 130.143
21.810 10.601 127.292
23.060 11.568 124.272
24.380 12.534 121.082
25.780 13.503 117.699
27.260 14.472 114.123
28.820 15.437 110.354
30.470 16.403 106.367
32.220 17.372 102.139
34.060 18.335 97.693
36.010 19.301 92.982
38.080 20.269 87.982
40.260 21.234 82.715
42.560 22.197 77.159
45.000 23.163 71.265
47.580 24.128 65.034
50.310 25.094 58.440
53.190 26.057 51.484
56.230 27.018 44.143
59.460 27.984 36.343
62.860 28.945 28.134
66.460 29.906 19.443
70.270 30.868 10.245
74.300 31.830 0.517
78.550 32.788 -9.740
83.050 33.747 -20.599
87.810 34.706 -32.084
92.840 35.663 -44.219
98.160 36.619 -57.052
103.780 37.573 -70.606
109.730 38.527 -84.953
116.020 39.479 -100.117
122.660 40.428 -116.121
129.690 41.376 -133.062
137.120 42.322 -150.963
144.970 43.265 -169.871
153.280 44.207 170.120
162.060 45.145 148.985
171.340 46.079 126.655
181.160 47.010 103.037
191.540 47.936 78.084
202.510 48.858 51.730
214.110 49.774 23.884
226.380 50.686 -5.544
239.350 51.591 -36.616
253.060 52.491 -69.418
267.560 53.385 -104.059
282.890 54.275 -140.620
299.090 55.163 -179.187
316.230 56.051 140.086
334.340 56.941 97.131
353.500 57.840 51.758
373.750 58.749 3.863
395.160 59.674 -46.740
417.800 60.616 -100.242
441.730 61.578 -156.812
467.040 62.563 143.313
493.800 63.571 79.944
522.090 64.609 12.861
552.000 65.685 -58.223
583.620 66.806 -133.668
617.050 67.961 146.083
652.400 69.122 60.573
689.780 70.238 -30.512
729.290 71.265 -127.260
771.080 72.183 130.233
815.250 72.995 21.928
861.950 73.710 -92.471
911.330 74.318 146.713
963.540 74.807 19.213
1018.740 75.167 -115.169
1077.110 75.389 103.329
1138.810 75.482 -45.322
1204.050 75.511 158.799
1273.030 75.571 -5.078
1345.960 75.683 -177.925
1423.070 75.835 -0.663
1504.590 75.988 165.569
1590.790 75.979 -39.938
1681.920 75.726 103.206
1778.280 75.273 -125.310
1880.150 74.572 -5.836
1987.870 73.629 102.110
2101.750 72.634 -161.536
2222.150 71.749 -77.173
2349.460 71.421 -6.107
2484.060 71.735 45.810
2626.360 72.027 76.271
2776.820 71.898 86.952
2935.900 71.710 79.980
3104.100 71.201 54.334
3281.930 72.290 -1.724
3469.940 71.839 -83.531
3668.730 70.302 175.034
3878.910 69.279 58.341
4101.130 69.886 -89.568
4336.070 70.130 85.195
4584.480 69.585 -129.177
4847.120 69.538 -14.769
5124.810 69.567 61.181
5418.400 68.636 98.071
5728.810 67.794 103.320
6057.010 67.244 62.743
6404.000 65.815 -13.487
6770.880 64.194 -136.408
7158.770 60.955 50.118
7568.890 62.466 167.081
8002.500 60.067 -75.984
8460.950 60.604 -49.932
8945.670 60.230 -92.664
9458.160 58.998 167.976
10000.000 56.461 -12.341
