# Freq(Hz) SPL(dB) Phase (degrees)
10.000 -2.587 156.765
10.570 -1.624 155.441
11.180 -0.649 154.024
11.820 0.317 152.537
12.500 1.289 150.958
13.210 2.248 149.308
13.970 3.220 147.543
14.770 4.187 145.684
15.620 5.158 143.710
16.510 6.120 141.642
17.460 7.092 139.436
18.460 8.059 137.113
19.510 9.019 134.674
20.630 9.988 132.072
21.810 10.953 129.331
23.060 11.921 126.428
24.380 12.886 123.362
25.780 13.855 120.110
27.260 14.824 116.673
28.820 15.789 113.050
30.470 16.755 109.218
32.220 17.723 105.155
34.060 18.686 100.882
36.010 19.651 96.354
38.080 20.619 91.548
40.260 21.584 86.487
42.560 22.546 81.148
45.000 23.511 75.485
47.580 24.475 69.496
50.310 25.441 63.161
53.190 26.403 56.478
56.230 27.364 49.425
59.460 28.328 41.932
62.860 29.288 34.046
66.460 30.249 25.698
70.270 31.210 16.864
74.300 32.170 7.522
78.550 33.128 -2.328
83.050 34.086 -12.756
87.810 35.043 -23.783
92.840 35.999 -35.433
98.160 36.954 -47.751
103.780 37.908 -60.761
109.730 38.861 -74.532
116.020 39.814 -89.086
122.660 40.763 -104.446
129.690 41.713 -120.704
137.120 42.660 -137.884
144.970 43.606 -156.031
153.280 44.551 -175.239
162.060 45.494 164.469
171.340 46.434 143.025
181.160 47.373 120.334
191.540 48.308 96.352
202.510 49.240 71.008
214.110 50.168 44.213
226.380 51.092 15.875
239.350 52.011 -14.070
253.060 52.923 -45.711
267.560 53.830 -79.154
282.890 54.731 -114.487
299.090 55.626 -151.793
316.230 56.518 168.769
334.340 57.406 127.129
353.500 58.294 83.091
373.750 59.180 36.544
395.160 60.064 -12.700
417.800 60.940 -64.821
441.730 61.801 -119.960
467.040 62.639 -178.289
493.800 63.451 120.104
522.090 64.242 55.123
552.000 65.032 -13.414
583.620 65.841 -85.833
617.050 66.665 -162.610
652.400 67.462 115.815
689.780 68.170 29.292
729.290 68.749 -61.955
771.080 69.225 -157.645
815.250 69.708 102.380
861.950 70.347 -2.595
911.330 71.207 -114.137
963.540 72.188 126.144
1018.740 73.065 -2.712
1077.110 73.586 -140.772
1138.810 73.504 73.019
1204.050 72.774 -78.619
1273.030 71.750 126.850
1345.960 71.326 -31.179
1423.070 71.894 159.649
1504.590 72.516 -26.127
1590.790 72.119 133.114
1681.920 70.202 -75.926
1778.280 67.119 77.675
1880.150 66.602 -122.506
1987.870 68.735 8.467
2101.750 69.376 115.548
2222.150 69.279 -142.695
2349.460 70.989 -53.275
2484.060 73.324 7.724
2626.360 74.506 45.864
2776.820 74.963 68.559
2935.900 75.679 73.783
3104.100 76.427 54.555
3281.930 76.275 11.811
3469.940 75.879 -50.259
3668.730 75.254 -138.813
3878.910 73.257 110.488
4101.130 71.666 -21.621
4336.070 68.292 179.632
4584.480 67.358 8.557
4847.120 66.313 161.575
5124.810 67.698 -79.181
5418.400 68.340 -10.617
5728.810 67.703 16.811
6057.010 66.091 6.961
6404.000 60.862 -51.686
6770.880 52.302 -107.413
7158.770 58.232 171.488
7568.890 62.804 -9.333
8002.500 61.100 121.197
8460.950 61.105 175.091
8945.670 60.498 -172.769
9458.160 57.839 109.444
10000.000 54.805 25.897
