# Freq(Hz) SPL(dB) Phase (degrees)
10.000 -1.838 158.621
10.570 -0.875 157.403
11.180 0.099 156.099
11.820 1.066 154.731
12.500 2.037 153.278
13.210 2.997 151.761
13.970 3.968 150.136
14.770 4.935 148.427
15.620 5.906 146.610
16.510 6.868 144.709
17.460 7.839 142.679
18.460 8.806 140.542
19.510 9.766 138.299
20.630 10.735 135.906
21.810 11.700 133.386
23.060 12.667 130.716
24.380 13.633 127.897
25.780 14.601 124.907
27.260 15.569 121.747
28.820 16.534 118.416
30.470 17.499 114.894
32.220 18.467 111.160
34.060 19.429 107.234
36.010 20.394 103.074
38.080 21.362 98.659
40.260 22.325 94.011
42.560 23.287 89.108
45.000 24.251 83.909
47.580 25.215 78.413
50.310 26.179 72.600
53.190 27.141 66.471
56.230 28.101 60.004
59.460 29.065 53.137
62.860 30.024 45.913
66.460 30.984 38.268
70.270 31.945 30.184
74.300 32.905 21.640
78.550 33.863 12.636
83.050 34.822 3.112
87.810 35.781 -6.953
92.840 36.740 -17.578
98.160 37.699 -28.803
103.780 38.658 -40.647
109.730 39.620 -53.171
116.020 40.582 -66.394
122.660 41.546 -80.336
129.690 42.514 -95.078
137.120 43.485 -110.641
144.970 44.461 -127.065
153.280 45.445 -144.436
162.060 46.436 -162.776
171.340 47.437 177.848
181.160 48.450 157.345
191.540 49.477 135.663
202.510 50.520 112.725
214.110 51.581 88.428
226.380 52.662 62.666
239.350 53.762 35.348
253.060 54.881 6.360
267.560 56.019 -24.435
282.890 57.173 -57.152
299.090 58.337 -91.900
316.230 59.507 -128.845
334.340 60.676 -168.055
353.500 61.839 150.310
373.750 62.987 106.192
395.160 64.116 59.492
417.800 65.225 10.132
441.730 66.317 -41.929
467.040 67.405 -96.797
493.800 68.510 -154.567
522.090 69.665 144.550
552.000 70.898 80.189
583.620 72.220 11.864
617.050 73.620 -60.955
652.400 75.061 -138.737
689.780 76.497 138.177
729.290 77.882 49.585
771.080 79.174 -44.723
815.250 80.337 -144.746
861.950 81.349 109.506
911.330 82.217 -1.918
963.540 82.983 -119.059
1018.740 83.707 117.751
1077.110 84.425 -12.231
1138.810 85.112 -149.752
1204.050 85.692 64.775
1273.030 86.134 -88.913
1345.960 86.412 109.106
1423.070 86.546 -61.223
1504.590 86.612 119.765
1590.790 86.636 -68.823
1681.920 86.596 92.345
1778.280 86.466 -117.366
1880.150 86.227 21.906
1987.870 85.968 149.665
2101.750 85.740 -95.430
2222.150 85.430 5.577
2349.460 84.958 92.683
2484.060 84.476 165.831
2626.360 84.049 -136.768
2776.820 83.596 -95.579
2935.900 83.344 -71.637
3104.100 83.145 -67.572
3281.930 83.128 -82.591
3469.940 83.302 -121.435
3668.730 83.152 176.232
3878.910 82.994 91.789
4101.130 83.002 -19.079
4336.070 83.010 -155.804
4584.480 83.147 37.702
4847.120 83.319 -160.151
5124.810 83.135 -30.838
5418.400 82.861 66.499
5728.810 82.662 128.454
6057.010 82.499 152.975
6404.000 82.228 135.795
6770.880 81.705 78.958
7158.770 81.190 -24.103
7568.890 80.507 -172.292
8002.500 80.345 -9.862
8460.950 79.705 100.014
8945.670 79.088 146.761
9458.160 78.356 139.515
10000.000 76.246 74.551
