# Freq(Hz) SPL(dB) Phase (degrees)
10.000 -3.235 155.018
10.570 -2.272 153.595
11.180 -1.298 152.071
11.820 -0.330 150.472
12.500 0.641 148.774
13.210 1.601 147.000
13.970 2.573 145.102
14.770 3.540 143.104
15.620 4.513 140.980
16.510 5.475 138.757
17.460 6.448 136.384
18.460 7.415 133.886
19.510 8.376 131.263
20.630 9.346 128.466
21.810 10.313 125.518
23.060 11.281 122.395
24.380 12.249 119.098
25.780 13.219 115.601
27.260 14.189 111.904
28.820 15.156 108.007
30.470 16.124 103.885
32.220 17.095 99.513
34.060 18.060 94.917
36.010 19.028 90.046
38.080 20.000 84.874
40.260 20.968 79.428
42.560 21.934 73.683
45.000 22.904 67.587
47.580 23.874 61.141
50.310 24.844 54.321
53.190 25.813 47.125
56.230 26.781 39.530
59.460 27.753 31.460
62.860 28.722 22.964
66.460 29.692 13.969
70.270 30.664 4.448
74.300 31.636 -5.624
78.550 32.606 -16.246
83.050 33.579 -27.494
87.810 34.552 -39.393
92.840 35.526 -51.969
98.160 36.501 -65.272
103.780 37.475 -79.328
109.730 38.452 -94.212
116.020 39.430 -109.952
122.660 40.408 -126.572
129.690 41.388 -144.176
137.120 42.369 -162.788
144.970 43.351 177.537
153.280 44.336 156.698
162.060 45.321 134.667
171.340 46.307 111.364
181.160 47.296 86.686
191.540 48.285 60.579
202.510 49.274 32.963
214.110 50.263 3.733
226.380 51.251 -27.214
239.350 52.237 -59.957
253.060 53.220 -94.598
267.560 54.199 -131.264
282.890 55.173 -170.055
299.090 56.139 148.933
316.230 57.100 105.526
334.340 58.053 59.651
353.500 58.999 11.104
373.750 59.939 -40.222
395.160 60.873 -94.522
417.800 61.800 -152.005
441.730 62.716 147.138
467.040 63.613 82.631
493.800 64.476 14.264
522.090 65.283 -58.154
552.000 66.012 -134.762
583.620 66.645 144.390
617.050 67.178 59.285
652.400 67.627 -30.130
689.780 68.017 -123.975
729.290 68.380 137.567
771.080 68.747 34.118
815.250 69.148 -74.598
861.950 69.618 170.965
911.330 70.205 50.212
963.540 70.941 -77.759
1018.740 71.810 145.947
1077.110 72.702 0.227
1138.810 73.455 -155.304
1204.050 73.950 39.535
1273.030 74.190 -134.922
1345.960 74.207 41.086
1423.070 74.015 -152.847
1504.590 73.572 2.732
1590.790 72.802 147.751
1681.920 71.690 -77.201
1778.280 70.385 48.897
1880.150 69.280 165.482
1987.870 68.750 -89.896
2101.750 68.759 -0.850
2222.150 69.226 69.771
2349.460 69.680 119.028
2484.060 69.682 147.258
2626.360 68.996 155.815
2776.820 67.620 145.652
2935.900 65.338 116.838
3104.100 62.409 81.119
3281.930 63.013 33.318
3469.940 65.460 -62.743
3668.730 66.682 160.313
3878.910 66.064 -13.036
4101.130 62.833 146.787
4336.070 57.697 -83.026
4584.480 53.806 67.759
4847.120 58.489 150.963
5124.810 61.159 170.300
5418.400 61.471 146.389
5728.810 56.253 90.196
6057.010 46.275 97.738
6404.000 58.202 -44.781
6770.880 58.001 116.715
7158.770 51.964 -70.369
7568.890 57.248 56.653
8002.500 56.633 41.827
8460.950 52.979 38.668
8945.670 57.247 -43.196
9458.160 51.521 -132.859
10000.000 53.084 -23.861
