# Freq(Hz) SPL(dB) Phase (degrees)
10.000 -3.094 155.414
10.570 -2.131 154.013
11.180 -1.156 152.513
11.820 -0.189 150.940
12.500 0.782 149.268
13.210 1.742 147.523
13.970 2.714 145.654
14.770 3.681 143.688
15.620 4.653 141.598
16.510 5.615 139.410
17.460 6.587 137.075
18.460 7.554 134.617
19.510 8.515 132.035
20.630 9.484 129.282
21.810 10.450 126.381
23.060 11.418 123.309
24.380 12.384 120.064
25.780 13.354 116.622
27.260 14.323 112.984
28.820 15.289 109.149
30.470 16.255 105.093
32.220 17.225 100.792
34.060 18.189 96.269
36.010 19.155 91.475
38.080 20.125 86.387
40.260 21.091 81.029
42.560 22.055 75.376
45.000 23.021 69.378
47.580 23.988 63.037
50.310 24.956 56.327
53.190 25.921 49.249
56.230 26.884 41.778
59.460 27.852 33.840
62.860 28.815 25.484
66.460 29.780 16.637
70.270 30.745 7.275
74.300 31.710 -2.628
78.550 32.672 -13.071
83.050 33.635 -24.128
87.810 34.598 -35.824
92.840 35.561 -48.182
98.160 36.522 -61.253
103.780 37.483 -75.061
109.730 38.444 -89.679
116.020 39.404 -105.133
122.660 40.362 -121.447
129.690 41.320 -138.719
137.120 42.276 -156.974
144.970 43.231 -176.262
153.280 44.185 163.319
162.060 45.136 141.744
171.340 46.085 118.940
181.160 47.032 94.808
191.540 47.975 69.301
202.510 48.914 42.346
214.110 49.849 13.848
226.380 50.779 -16.289
239.350 51.702 -48.133
253.060 52.619 -81.774
267.560 53.528 -117.327
282.890 54.430 -154.879
299.090 55.324 165.484
316.230 56.213 123.603
334.340 57.095 79.414
353.500 57.975 32.732
373.750 58.853 -16.538
395.160 59.733 -68.570
417.800 60.615 -123.540
441.730 61.501 178.399
467.040 62.390 117.026
493.800 63.284 52.187
522.090 64.186 -16.289
552.000 65.108 -88.603
583.620 66.066 -165.017
617.050 67.076 114.083
652.400 68.138 28.195
689.780 69.226 -63.160
729.290 70.297 -160.280
771.080 71.324 96.578
815.250 72.295 -12.705
861.950 73.212 -128.473
911.330 74.062 108.881
963.540 74.830 -21.018
1018.740 75.490 -158.570
1077.110 75.996 55.772
1138.810 76.275 -98.065
1204.050 76.314 100.297
1273.030 76.196 -69.203
1345.960 76.000 112.939
1423.070 75.750 -73.930
1504.590 75.506 89.672
1590.790 75.292 -117.143
1681.920 75.121 24.703
1778.280 74.992 154.228
1880.150 74.901 -89.486
1987.870 74.768 12.250
2101.750 74.496 98.983
2222.150 74.014 170.131
2349.460 73.202 -134.505
2484.060 72.121 -93.890
2626.360 70.951 -68.161
2776.820 70.154 -56.103
2935.900 70.693 -64.376
3104.100 71.992 -105.381
3281.930 72.165 -170.253
3469.940 71.442 97.422
3668.730 69.807 -15.485
3878.910 68.726 -149.914
4101.130 67.893 44.518
4336.070 65.757 -154.382
4584.480 62.614 -11.625
4847.120 62.107 119.051
5124.810 64.169 -169.294
5418.400 64.996 -151.088
5728.810 62.796 -164.311
6057.010 63.078 152.059
6404.000 62.001 42.307
6770.880 57.461 -97.287
7158.770 58.750 75.413
7568.890 59.978 -179.379
8002.500 53.277 -102.577
8460.950 51.948 -158.274
8945.670 51.121 166.997
9458.160 36.489 15.130
10000.000 42.599 -82.303
