# Freq(Hz) SPL(dB) Phase (degrees)
10.000 -2.884 155.981
10.570 -1.921 154.613
11.180 -0.946 153.148
11.820 0.020 151.611
12.500 0.992 149.978
13.210 1.952 148.273
13.970 2.923 146.447
14.770 3.890 144.526
15.620 4.862 142.485
16.510 5.824 140.348
17.460 6.796 138.066
18.460 7.763 135.665
19.510 8.724 133.143
20.630 9.693 130.454
21.810 10.659 127.620
23.060 11.627 124.618
24.380 12.593 121.448
25.780 13.563 118.086
27.260 14.532 114.532
28.820 15.498 110.786
30.470 16.464 106.824
32.220 17.433 102.622
34.060 18.397 98.204
36.010 19.363 93.522
38.080 20.333 88.551
40.260 21.299 83.317
42.560 22.262 77.795
45.000 23.229 71.937
47.580 24.196 65.743
50.310 25.163 59.189
53.190 26.127 52.275
56.230 27.090 44.978
59.460 28.058 37.224
62.860 29.021 29.063
66.460 29.985 20.423
70.270 30.950 11.279
74.300 31.915 1.607
78.550 32.876 -8.593
83.050 33.839 -19.391
87.810 34.802 -30.814
92.840 35.764 -42.884
98.160 36.726 -55.649
103.780 37.687 -69.134
109.730 38.648 -83.411
116.020 39.608 -98.505
122.660 40.566 -114.439
129.690 41.525 -131.311
137.120 42.483 -149.145
144.970 43.438 -167.990
153.280 44.394 172.056
162.060 45.348 150.969
171.340 46.299 128.675
181.160 47.249 105.076
191.540 48.196 80.122
202.510 49.138 53.742
214.110 50.076 25.839
226.380 51.008 -3.683
239.350 51.933 -34.892
253.060 52.849 -67.879
267.560 53.756 -102.758
282.890 54.652 -139.612
299.090 55.536 -178.527
316.230 56.410 140.342
334.340 57.273 96.935
353.500 58.128 51.065
373.750 58.976 2.632
395.160 59.817 -48.544
417.800 60.651 -102.651
441.730 61.471 -159.847
467.040 62.271 139.663
493.800 63.042 75.775
522.090 63.784 8.418
552.000 64.516 -62.492
583.620 65.279 -137.160
617.050 66.114 143.911
652.400 67.022 59.962
689.780 67.945 -29.715
729.290 68.785 -125.458
771.080 69.453 132.652
815.250 69.889 24.897
861.950 70.069 -88.411
911.330 70.012 153.170
963.540 69.815 30.212
1018.740 69.714 -97.265
1077.110 70.001 129.180
1138.810 70.705 -13.646
1204.050 71.471 -167.875
1273.030 71.993 26.397
1345.960 72.074 -150.346
1423.070 71.552 22.269
1504.590 70.233 -174.742
1590.790 67.983 -18.803
1681.920 65.036 136.129
1778.280 63.594 -68.335
1880.150 64.346 64.909
1987.870 63.734 170.512
2101.750 59.126 -100.025
2222.150 50.191 79.409
2349.460 62.689 166.459
2484.060 66.725 -154.867
2626.360 67.899 -130.218
2776.820 68.040 -115.249
2935.900 69.282 -113.619
3104.100 71.505 -141.854
3281.930 72.097 157.740
3469.940 70.923 83.120
3668.730 71.129 -7.079
3878.910 71.466 -135.563
4101.130 69.853 72.640
4336.070 68.922 -92.298
4584.480 69.683 58.457
4847.120 67.592 177.909
5124.810 68.848 -85.622
5418.400 67.574 -44.301
5728.810 67.966 -24.508
6057.010 66.785 -64.663
6404.000 63.785 -134.534
6770.880 60.297 99.744
7158.770 58.186 -28.651
7568.890 54.039 132.327
8002.500 53.743 170.283
8460.950 59.152 -49.173
8945.670 60.667 -78.838
9458.160 58.403 -173.666
10000.000 56.440 28.062
