# Freq(Hz) SPL(dB) Phase (degrees)
10.000 -1.352 159.739
10.570 -0.390 158.585
11.180 0.585 157.349
11.820 1.552 156.053
12.500 2.523 154.676
13.210 3.482 153.238
13.970 4.454 151.699
14.770 5.421 150.079
15.620 6.392 148.358
16.510 7.354 146.556
17.460 8.326 144.632
18.460 9.293 142.607
19.510 10.253 140.482
20.630 11.222 138.215
21.810 12.187 135.826
23.060 13.154 133.296
24.380 14.120 130.625
25.780 15.089 127.792
27.260 16.057 124.798
28.820 17.023 121.642
30.470 17.988 118.305
32.220 18.957 114.767
34.060 19.920 111.047
36.010 20.885 107.106
38.080 21.853 102.924
40.260 22.818 98.520
42.560 23.780 93.876
45.000 24.746 88.950
47.580 25.711 83.744
50.310 26.677 78.238
53.190 27.641 72.432
56.230 28.602 66.306
59.460 29.569 59.801
62.860 30.531 52.958
66.460 31.494 45.716
70.270 32.459 38.057
74.300 33.424 29.962
78.550 34.387 21.430
83.050 35.352 12.403
87.810 36.319 2.861
92.840 37.286 -7.215
98.160 38.255 -17.865
103.780 39.225 -29.108
109.730 40.199 -41.006
116.020 41.176 -53.579
122.660 42.156 -66.849
129.690 43.141 -80.899
137.120 44.132 -95.752
144.970 45.128 -111.455
153.280 46.132 -128.095
162.060 47.144 -145.700
171.340 48.163 -164.343
181.160 49.191 175.884
191.540 50.227 154.927
202.510 51.270 132.710
214.110 52.318 109.139
226.380 53.370 84.119
239.350 54.423 57.580
253.060 55.473 29.436
267.560 56.517 -0.415
282.890 57.550 -32.044
299.090 58.569 -65.516
316.230 59.570 -100.944
334.340 60.550 -138.350
353.500 61.511 -177.845
373.750 62.455 140.549
395.160 63.389 96.751
417.800 64.330 50.667
441.730 65.299 2.176
467.040 66.323 -48.994
493.800 67.423 -103.197
522.090 68.603 -160.917
552.000 69.835 137.319
583.620 71.065 71.083
617.050 72.215 0.134
652.400 73.208 -75.513
689.780 73.985 -155.534
729.290 74.549 120.648
771.080 74.991 33.398
815.250 75.465 -57.459
861.950 76.078 -153.072
911.330 76.792 105.118
963.540 77.445 -3.708
1018.740 77.867 -119.428
1077.110 77.982 118.704
1138.810 77.870 -8.384
1204.050 77.734 -141.022
1273.030 77.618 79.384
1345.960 77.401 -67.404
1423.070 77.250 138.892
1504.590 77.257 -24.554
1590.790 76.806 161.235
1681.920 75.784 -17.848
1778.280 75.565 158.391
1880.150 75.994 -40.912
1987.870 75.763 107.378
2101.750 75.836 -111.022
2222.150 76.756 14.562
2349.460 77.447 123.114
2484.060 77.916 -143.238
2626.360 78.404 -63.475
2776.820 79.278 -3.047
2935.900 79.339 37.977
3104.100 79.808 62.973
3281.930 79.358 65.474
3469.940 78.424 52.904
3668.730 77.599 19.351
3878.910 76.645 -32.868
4101.130 76.454 -109.345
4336.070 75.207 147.464
4584.480 73.884 17.503
4847.120 71.634 -125.742
5124.810 71.650 68.458
5418.400 74.450 -141.395
5728.810 76.025 -37.024
6057.010 75.690 25.603
6404.000 74.592 54.384
6770.880 72.224 55.247
7158.770 70.031 19.823
7568.890 71.250 -57.156
8002.500 67.937 166.417
8460.950 65.135 1.956
8945.670 65.975 142.826
9458.160 66.482 -149.940
10000.000 63.282 -142.310
