# Freq(Hz) SPL(dB) Phase (degrees)
10.000 -1.225 160.021
10.570 -0.262 158.883
11.180 0.712 157.664
11.820 1.679 156.386
12.500 2.651 155.028
13.210 3.610 153.610
13.970 4.582 152.093
14.770 5.549 150.495
15.620 6.521 148.798
16.510 7.483 147.021
17.460 8.455 145.124
18.460 9.422 143.128
19.510 10.383 141.032
20.630 11.352 138.797
21.810 12.318 136.442
23.060 13.286 133.948
24.380 14.253 131.314
25.780 15.222 128.521
27.260 16.191 125.569
28.820 17.157 122.459
30.470 18.124 119.169
32.220 19.093 115.681
34.060 20.057 112.014
36.010 21.024 108.130
38.080 21.994 104.007
40.260 22.960 99.667
42.560 23.925 95.090
45.000 24.893 90.237
47.580 25.860 85.107
50.310 26.829 79.682
53.190 27.796 73.962
56.230 28.761 67.928
59.460 29.732 61.521
62.860 30.699 54.781
66.460 31.667 47.651
70.270 32.638 40.111
74.300 33.610 32.141
78.550 34.581 23.745
83.050 35.555 14.862
87.810 36.531 5.475
92.840 37.510 -4.435
98.160 38.493 -14.908
103.780 39.478 -25.962
109.730 40.471 -37.657
116.020 41.469 -50.014
122.660 42.473 -63.054
129.690 43.487 -76.859
137.120 44.510 -91.454
144.970 45.545 -106.885
153.280 46.595 -123.242
162.060 47.658 -140.557
171.340 48.738 -158.905
181.160 49.836 -178.384
191.540 50.951 160.943
202.510 52.085 138.993
214.110 53.235 115.660
226.380 54.402 90.837
239.350 55.581 64.441
253.060 56.767 36.372
267.560 57.958 6.519
282.890 59.147 -25.199
299.090 60.327 -58.852
316.230 61.496 -94.553
334.340 62.647 -132.320
353.500 63.783 -172.258
373.750 64.903 145.624
395.160 66.019 101.252
417.800 67.148 54.537
441.730 68.313 5.357
467.040 69.546 -46.567
493.800 70.869 -101.605
522.090 72.288 -160.267
552.000 73.776 136.907
583.620 75.275 69.507
617.050 76.721 -2.679
652.400 78.056 -79.676
689.780 79.245 -161.378
729.290 80.279 112.408
771.080 81.183 21.743
815.250 82.008 -73.370
861.950 82.815 -173.331
911.330 83.633 81.192
963.540 84.437 -30.500
1018.740 85.167 -148.899
1077.110 85.745 85.787
1138.810 86.127 -46.210
1204.050 86.360 175.351
1273.030 86.542 30.096
1345.960 86.699 -122.832
1423.070 86.788 76.143
1504.590 86.852 -93.111
1590.790 86.991 88.463
1681.920 87.162 -100.563
1778.280 87.176 58.968
1880.150 86.922 -151.974
1987.870 86.674 -12.997
2101.750 86.573 112.877
2222.150 86.149 -135.462
2349.460 85.359 -35.376
2484.060 84.705 52.620
2626.360 84.106 125.858
2776.820 83.532 -175.154
2935.900 83.382 -130.863
3104.100 83.995 -106.096
3281.930 84.699 -104.793
3469.940 85.329 -125.918
3668.730 85.674 -171.189
3878.910 85.572 121.592
4101.130 85.534 31.663
4336.070 85.509 -83.074
4584.480 85.719 133.872
4847.120 85.824 -39.666
5124.810 85.620 115.036
5418.400 84.903 -120.212
5728.810 84.121 -26.666
6057.010 83.544 32.439
6404.000 83.196 54.464
6770.880 82.600 37.357
7158.770 82.779 -20.859
7568.890 83.338 -126.756
8002.500 82.699 76.807
8460.950 82.577 -129.135
8945.670 82.526 -25.941
9458.160 82.068 22.072
10000.000 81.931 11.108
