# Freq(Hz) SPL(dB) Phase (degrees)
10.000 -1.732 158.869
10.570 -0.770 157.665
11.180 0.205 156.377
11.820 1.171 155.025
12.500 2.143 153.588
13.210 3.102 152.089
13.970 4.073 150.483
14.770 5.040 148.794
15.620 6.011 146.998
16.510 6.973 145.118
17.460 7.945 143.112
18.460 8.911 141.000
19.510 9.871 138.783
20.630 10.840 136.418
21.810 11.805 133.927
23.060 12.772 131.287
24.380 13.738 128.501
25.780 14.706 125.546
27.260 15.674 122.422
28.820 16.639 119.130
30.470 17.604 115.648
32.220 18.572 111.956
34.060 19.534 108.075
36.010 20.498 103.963
38.080 21.466 99.598
40.260 22.430 95.003
42.560 23.391 90.156
45.000 24.355 85.015
47.580 25.319 79.581
50.310 26.283 73.834
53.190 27.245 67.772
56.230 28.204 61.377
59.460 29.168 54.585
62.860 30.127 47.439
66.460 31.087 39.877
70.270 32.048 31.878
74.300 33.008 23.422
78.550 33.966 14.510
83.050 34.924 5.081
87.810 35.883 -4.887
92.840 36.842 -15.412
98.160 37.800 -26.536
103.780 38.759 -38.279
109.730 39.719 -50.703
116.020 40.681 -63.828
122.660 41.642 -77.675
129.690 42.607 -92.329
137.120 43.573 -107.812
144.970 44.543 -124.167
153.280 45.517 -141.481
162.060 46.495 -159.779
171.340 47.478 -179.131
181.160 48.467 160.373
191.540 49.461 138.682
202.510 50.460 115.724
214.110 51.464 91.404
226.380 52.472 65.628
239.350 53.483 38.324
253.060 54.495 9.398
267.560 55.505 -21.259
282.890 56.510 -53.734
299.090 57.507 -88.108
316.230 58.495 -124.519
334.340 59.467 -163.013
353.500 60.421 156.270
373.750 61.356 113.289
395.160 62.269 67.958
417.800 63.168 20.207
441.730 64.063 -30.008
467.040 64.980 -82.828
493.800 65.951 -138.449
522.090 67.009 162.756
552.000 68.168 100.225
583.620 69.406 33.341
617.050 70.661 -38.432
652.400 71.851 -115.405
689.780 72.887 162.414
729.290 73.710 75.337
771.080 74.309 -16.262
815.250 74.731 -111.919
861.950 75.091 148.504
911.330 75.559 44.526
963.540 76.268 -65.478
1018.740 77.108 176.227
1077.110 77.721 48.546
1138.810 77.740 -87.255
1204.050 77.089 131.670
1273.030 76.215 -12.099
1345.960 75.837 -160.650
1423.070 75.900 40.049
1504.590 75.577 -131.558
1590.790 74.373 49.148
1681.920 72.923 -132.364
1778.280 72.456 40.887
1880.150 72.890 -159.607
1987.870 73.348 -15.224
2101.750 73.733 117.996
2222.150 74.917 -122.107
2349.460 76.359 -23.616
2484.060 76.848 56.656
2626.360 77.074 125.941
2776.820 77.933 174.866
2935.900 77.591 -157.630
3104.100 76.999 -141.151
3281.930 76.651 -151.348
3469.940 74.907 -174.271
3668.730 73.718 143.464
3878.910 72.764 84.306
4101.130 72.779 -0.607
4336.070 72.505 -118.675
4584.480 72.714 96.980
4847.120 70.735 -73.156
5124.810 68.813 90.253
5418.400 69.149 -126.895
5728.810 71.492 -31.132
6057.010 72.150 12.709
6404.000 72.389 14.406
6770.880 69.762 -14.211
7158.770 66.082 -74.893
7568.890 63.663 -164.854
8002.500 64.753 45.893
8460.950 61.434 -171.121
8945.670 61.135 -51.173
9458.160 62.052 -0.101
10000.000 58.544 -32.454
