# Freq(Hz) SPL(dB) Phase (degrees)
10.000 -2.328 157.426
10.570 -1.366 156.139
11.180 -0.391 154.762
11.820 0.576 153.318
12.500 1.547 151.783
13.210 2.506 150.181
13.970 3.477 148.466
14.770 4.444 146.660
15.620 5.415 144.742
16.510 6.377 142.734
17.460 7.348 140.590
18.460 8.315 138.334
19.510 9.275 135.964
20.630 10.244 133.437
21.810 11.209 130.775
23.060 12.175 127.955
24.380 13.141 124.977
25.780 14.109 121.819
27.260 15.077 118.481
28.820 16.042 114.962
30.470 17.006 111.241
32.220 17.974 107.295
34.060 18.936 103.146
36.010 19.900 98.750
38.080 20.867 94.084
40.260 21.830 89.171
42.560 22.790 83.988
45.000 23.754 78.492
47.580 24.717 72.681
50.310 25.680 66.533
53.190 26.640 60.050
56.230 27.598 53.209
59.460 28.560 45.943
62.860 29.517 38.297
66.460 30.474 30.204
70.270 31.431 21.644
74.300 32.388 12.594
78.550 33.341 3.055
83.050 34.294 -7.039
87.810 35.247 -17.708
92.840 36.197 -28.975
98.160 37.146 -40.882
103.780 38.094 -53.449
109.730 39.041 -66.742
116.020 39.987 -80.781
122.660 40.930 -95.584
129.690 41.873 -111.239
137.120 42.815 -127.764
144.970 43.756 -145.200
153.280 44.698 -163.633
162.060 45.640 176.919
171.340 46.584 156.393
181.160 47.531 134.704
191.540 48.482 111.810
202.510 49.438 87.646
214.110 50.403 62.123
226.380 51.378 35.149
239.350 52.366 6.649
253.060 53.370 -23.478
267.560 54.392 -55.362
282.890 55.436 -89.119
299.090 56.500 -124.871
316.230 57.588 -162.811
334.340 58.696 156.953
353.500 59.821 114.205
373.750 60.957 68.822
395.160 62.097 20.631
417.800 63.232 -30.529
441.730 64.356 -84.771
467.040 65.462 -142.259
493.800 66.547 156.899
522.090 67.615 92.569
552.000 68.668 24.566
583.620 69.710 -47.319
617.050 70.738 -123.308
652.400 71.748 156.409
689.780 72.753 71.689
729.290 73.784 -17.670
771.080 74.881 -112.235
815.250 76.040 147.339
861.950 77.211 40.375
911.330 78.326 -73.512
963.540 79.330 165.506
1018.740 80.186 37.228
1077.110 80.839 -98.510
1138.810 81.242 118.621
1204.050 81.444 -31.002
1273.030 81.604 172.506
1345.960 81.825 8.076
1423.070 82.113 -165.500
1504.590 82.393 10.727
1590.790 82.537 176.239
1681.920 82.490 -28.458
1778.280 82.377 116.613
1880.150 82.299 -109.336
1987.870 82.341 12.578
2101.750 82.505 120.683
2222.150 82.631 -146.117
2349.460 82.656 -67.667
2484.060 82.733 -4.070
2626.360 83.011 42.650
2776.820 83.389 70.637
2935.900 83.793 78.817
3104.100 84.178 66.004
3281.930 84.508 30.800
3469.940 84.529 -27.466
3668.730 84.370 -109.108
3878.910 84.062 144.722
4101.130 83.400 13.481
4336.070 83.056 -143.908
4584.480 82.695 28.199
4847.120 82.205 169.757
5124.810 81.775 -81.229
5418.400 81.267 -6.317
5728.810 81.139 31.489
6057.010 80.831 26.859
6404.000 79.920 -19.399
6770.880 78.641 -106.137
7158.770 77.544 121.891
7568.890 76.685 -58.984
8002.500 75.901 74.844
8460.950 74.493 147.326
8945.670 73.900 160.738
9458.160 71.941 115.457
10000.000 70.393 6.242
