# Freq(Hz) SPL(dB) Phase (degrees)
10.000 -1.232 160.007
10.570 -0.269 158.868
11.180 0.705 157.649
11.820 1.672 156.370
12.500 2.644 155.011
13.210 3.603 153.592
13.970 4.575 152.073
14.770 5.542 150.475
15.620 6.513 148.776
16.510 7.475 146.998
17.460 8.447 145.100
18.460 9.414 143.102
19.510 10.374 141.005
20.630 11.343 138.768
21.810 12.309 136.411
23.060 13.276 133.915
24.380 14.242 131.279
25.780 15.211 128.484
27.260 16.180 125.529
28.820 17.145 122.416
30.470 18.111 119.123
32.220 19.080 115.632
34.060 20.043 111.962
36.010 21.008 108.073
38.080 21.977 103.947
40.260 22.942 99.602
42.560 23.905 95.020
45.000 24.871 90.160
47.580 25.837 85.024
50.310 26.804 79.592
53.190 27.769 73.864
56.230 28.731 67.821
59.460 29.699 61.404
62.860 30.662 54.653
66.460 31.628 47.509
70.270 32.594 39.954
74.300 33.561 31.967
78.550 34.526 23.551
83.050 35.494 14.645
87.810 36.464 5.232
92.840 37.434 -4.709
98.160 38.407 -15.217
103.780 39.382 -26.311
109.730 40.362 -38.053
116.020 41.345 -50.463
122.660 42.331 -63.563
129.690 43.324 -77.436
137.120 44.324 -92.108
144.970 45.329 -107.623
153.280 46.344 -124.071
162.060 47.367 -141.482
171.340 48.399 -159.926
181.160 49.440 -179.499
191.540 50.489 159.745
202.510 51.545 137.730
214.110 52.606 114.362
226.380 53.671 89.548
239.350 54.735 63.218
253.060 55.795 35.289
267.560 56.847 5.664
282.890 57.887 -25.726
299.090 58.909 -58.937
316.230 59.913 -94.077
334.340 60.894 -131.162
353.500 61.857 -170.297
373.750 62.804 148.496
395.160 63.746 105.133
417.800 64.700 59.501
441.730 65.689 11.454
467.040 66.736 -39.313
493.800 67.857 -93.177
522.090 69.045 -150.610
552.000 70.267 147.908
583.620 71.462 82.026
617.050 72.557 11.590
652.400 73.484 -63.307
689.780 74.202 -142.282
729.290 74.741 135.219
771.080 75.219 49.364
815.250 75.779 -40.391
861.950 76.460 -135.374
911.330 77.154 123.354
963.540 77.715 15.654
1018.740 78.087 -98.007
1077.110 78.327 142.560
1138.810 78.501 16.917
1204.050 78.564 -115.761
1273.030 78.411 104.769
1345.960 78.157 -40.439
1423.070 78.188 167.206
1504.590 78.286 3.483
1590.790 77.650 -170.388
1681.920 76.527 12.414
1778.280 76.254 -170.665
1880.150 76.300 -7.847
1987.870 76.048 144.954
2101.750 76.232 -71.467
2222.150 77.048 58.278
2349.460 78.194 170.105
2484.060 78.776 -95.312
2626.360 79.416 -13.100
2776.820 80.259 47.925
2935.900 80.172 92.052
3104.100 80.226 119.085
3281.930 80.025 128.933
3469.940 79.422 119.621
3668.730 79.269 89.437
3878.910 78.226 36.528
4101.130 77.601 -39.210
4336.070 75.942 -137.249
4584.480 74.501 101.746
4847.120 72.721 -32.747
5124.810 73.122 161.630
5418.400 75.371 -44.157
5728.810 76.915 67.749
6057.010 77.048 136.486
6404.000 75.489 166.843
6770.880 73.465 172.369
7158.770 72.033 148.069
7568.890 70.965 73.609
8002.500 69.165 -50.873
8460.950 67.286 152.220
8945.670 68.190 -57.546
9458.160 68.075 12.859
10000.000 64.870 33.654
