# Freq(Hz) SPL(dB) Phase (degrees)
10.000 -1.989 158.259
10.570 -1.027 157.020
11.180 -0.052 155.694
11.820 0.914 154.303
12.500 1.886 152.825
13.210 2.845 151.282
13.970 3.816 149.630
14.770 4.783 147.891
15.620 5.754 146.044
16.510 6.716 144.109
17.460 7.687 142.045
18.460 8.654 139.872
19.510 9.614 137.590
20.630 10.583 135.157
21.810 11.548 132.593
23.060 12.515 129.877
24.380 13.480 127.009
25.780 14.449 123.968
27.260 15.417 120.753
28.820 16.381 117.365
30.470 17.346 113.782
32.220 18.314 109.982
34.060 19.276 105.987
36.010 20.240 101.754
38.080 21.208 97.262
40.260 22.171 92.531
42.560 23.132 87.542
45.000 24.096 82.249
47.580 25.059 76.655
50.310 26.023 70.737
53.190 26.984 64.495
56.230 27.943 57.909
59.460 28.906 50.914
62.860 29.864 43.554
66.460 30.823 35.764
70.270 31.782 27.524
74.300 32.741 18.812
78.550 33.697 9.630
83.050 34.653 -0.087
87.810 35.609 -10.359
92.840 36.564 -21.208
98.160 37.518 -32.674
103.780 38.472 -44.778
109.730 39.426 -57.585
116.020 40.380 -71.115
122.660 41.333 -85.389
129.690 42.288 -100.493
137.120 43.243 -116.448
144.970 44.199 -133.298
153.280 45.157 -151.129
162.060 46.117 -169.967
171.340 47.078 170.123
181.160 48.044 149.050
191.540 49.012 126.766
202.510 49.982 103.201
214.110 50.956 78.263
226.380 51.933 51.858
239.350 52.911 23.916
253.060 53.891 -5.656
267.560 54.870 -36.971
282.890 55.848 -70.122
299.090 56.822 -105.197
316.230 57.790 -142.350
334.340 58.750 178.356
353.500 59.698 136.753
373.750 60.628 92.775
395.160 61.537 46.308
417.800 62.422 -2.738
441.730 63.285 -54.398
467.040 64.137 -108.762
493.800 65.003 -165.906
522.090 65.920 133.963
552.000 66.924 70.439
583.620 68.029 2.948
617.050 69.209 -69.141
652.400 70.407 -146.346
689.780 71.547 131.049
729.290 72.560 43.028
771.080 73.402 -50.374
815.250 74.046 -148.935
861.950 74.488 107.583
911.330 74.785 -0.392
963.540 75.120 -112.766
1018.740 75.723 129.011
1077.110 76.548 2.069
1138.810 77.184 -135.009
1204.050 77.244 78.729
1273.030 76.604 -73.891
1345.960 75.558 130.061
1423.070 74.953 -29.567
1504.590 75.151 159.515
1590.790 74.950 -26.768
1681.920 73.514 138.043
1778.280 71.614 -56.905
1880.150 71.508 103.519
1987.870 72.198 -116.869
2101.750 72.119 9.761
2222.150 72.907 126.585
2349.460 74.195 -137.947
2484.060 74.933 -60.371
2626.360 75.610 0.618
2776.820 75.841 43.240
2935.900 76.175 69.925
3104.100 76.309 72.612
3281.930 75.533 57.494
3469.940 75.310 19.915
3668.730 72.967 -39.023
3878.910 71.676 -111.494
4101.130 69.550 158.723
4336.070 69.686 39.018
4584.480 70.243 -114.572
4847.120 69.927 64.372
5124.810 68.148 -152.962
5418.400 67.987 -36.145
5728.810 69.161 56.722
6057.010 69.666 91.964
6404.000 70.133 84.470
6770.880 69.064 35.963
7158.770 66.310 -54.727
7568.890 60.022 -163.872
8002.500 60.341 34.362
8460.950 61.209 163.772
8945.670 62.122 -136.223
9458.160 52.119 -113.120
10000.000 55.077 -157.853
