# Freq(Hz) SPL(dB) Phase (degrees)
10.000 -1.116 160.260
10.570 -0.154 159.135
11.180 0.821 157.932
11.820 1.788 156.669
12.500 2.759 155.327
13.210 3.719 153.926
13.970 4.690 152.427
14.770 5.657 150.848
15.620 6.629 149.171
16.510 7.591 147.416
17.460 8.563 145.542
18.460 9.530 143.569
19.510 10.490 141.498
20.630 11.459 139.290
21.810 12.425 136.963
23.060 13.393 134.498
24.380 14.359 131.896
25.780 15.328 129.136
27.260 16.297 126.220
28.820 17.263 123.146
30.470 18.229 119.895
32.220 19.198 116.448
34.060 20.161 112.825
36.010 21.127 108.986
38.080 22.097 104.912
40.260 23.062 100.623
42.560 24.026 96.099
45.000 24.993 91.302
47.580 25.959 86.232
50.310 26.927 80.869
53.190 27.892 75.215
56.230 28.856 69.249
59.460 29.825 62.915
62.860 30.790 56.250
66.460 31.757 49.198
70.270 32.725 41.740
74.300 33.694 33.856
78.550 34.662 25.548
83.050 35.633 16.756
87.810 36.606 7.463
92.840 37.580 -2.352
98.160 38.557 -12.728
103.780 39.537 -23.684
109.730 40.522 -35.280
116.020 41.511 -47.539
122.660 42.504 -60.483
129.690 43.506 -74.195
137.120 44.514 -88.700
144.970 45.529 -104.045
153.280 46.554 -120.318
162.060 47.588 -137.552
171.340 48.632 -155.819
181.160 49.685 -175.212
191.540 50.747 164.212
202.510 51.815 142.379
214.110 52.889 119.192
226.380 53.965 94.562
239.350 55.039 68.419
253.060 56.108 40.684
267.560 57.167 11.263
282.890 58.211 -19.907
299.090 59.236 -52.880
316.230 60.241 -87.755
334.340 61.224 -124.544
353.500 62.187 -163.350
373.750 63.137 155.808
395.160 64.086 112.837
417.800 65.052 67.609
441.730 66.055 19.954
467.040 67.119 -30.454
493.800 68.250 -83.999
522.090 69.435 -141.134
552.000 70.636 157.718
583.620 71.792 92.280
617.050 72.838 22.467
652.400 73.714 -51.567
689.780 74.403 -129.424
729.290 74.959 149.354
771.080 75.510 64.664
815.250 76.162 -24.323
861.950 76.884 -118.846
911.330 77.540 140.568
963.540 78.051 34.267
1018.740 78.486 -77.420
1077.110 78.951 164.658
1138.810 79.355 39.177
1204.050 79.455 -93.868
1273.030 79.210 127.222
1345.960 78.971 -16.647
1423.070 79.083 -168.553
1504.590 79.068 27.953
1590.790 78.266 -144.273
1681.920 77.165 40.198
1778.280 76.699 -142.003
1880.150 76.539 24.820
1987.870 76.637 -179.335
2101.750 76.821 -34.933
2222.150 77.757 98.148
2349.460 79.106 -149.452
2484.060 79.584 -53.327
2626.360 80.151 30.575
2776.820 80.761 95.290
2935.900 80.822 143.227
3104.100 80.737 175.569
3281.930 81.387 -172.682
3469.940 80.918 178.386
3668.730 80.617 148.482
3878.910 79.289 98.536
4101.130 78.492 29.678
4336.070 77.031 -65.316
4584.480 75.803 176.060
4847.120 73.574 42.992
5124.810 73.896 -114.207
5418.400 76.809 46.858
5728.810 78.361 160.985
6057.010 78.244 -125.407
6404.000 76.946 -83.359
6770.880 74.907 -75.808
7158.770 73.288 -98.113
7568.890 73.380 -169.876
8002.500 70.785 78.140
8460.950 68.747 -71.681
8945.670 69.780 83.280
9458.160 69.439 164.375
10000.000 66.699 -167.295
