# Freq(Hz) SPL(dB) Phase (degrees)
10.000 -1.342 159.761
10.570 -0.379 158.608
11.180 0.595 157.374
11.820 1.562 156.079
12.500 2.534 154.703
13.210 3.493 153.267
13.970 4.465 151.729
14.770 5.432 150.111
15.620 6.403 148.392
16.510 7.366 146.592
17.460 8.337 144.670
18.460 9.304 142.648
19.510 10.265 140.525
20.630 11.234 138.260
21.810 12.200 135.875
23.060 13.167 133.348
24.380 14.134 130.680
25.780 15.103 127.850
27.260 16.072 124.860
28.820 17.038 121.708
30.470 18.004 118.376
32.220 18.973 114.842
34.060 19.937 111.127
36.010 20.903 107.192
38.080 21.872 103.015
40.260 22.838 98.618
42.560 23.802 93.981
45.000 24.769 89.064
47.580 25.736 83.867
50.310 26.703 78.370
53.190 27.669 72.575
56.230 28.633 66.461
59.460 29.602 59.969
62.860 30.567 53.141
66.460 31.534 45.916
70.270 32.502 38.276
74.300 33.472 30.202
78.550 34.440 21.695
83.050 35.410 12.696
87.810 36.383 3.187
92.840 37.358 -6.852
98.160 38.335 -17.460
103.780 39.315 -28.655
109.730 40.301 -40.497
116.020 41.292 -53.006
122.660 42.288 -66.203
129.690 43.293 -80.170
137.120 44.306 -94.930
144.970 45.330 -110.530
153.280 46.367 -127.056
162.060 47.418 -144.540
171.340 48.483 -163.056
181.160 49.567 177.299
191.540 50.669 156.465
202.510 51.789 134.356
214.110 52.927 110.867
226.380 54.082 85.889
239.350 55.252 59.336
253.060 56.433 31.106
267.560 57.620 1.079
282.890 58.809 -30.832
299.090 59.993 -64.704
316.230 61.167 -100.659
334.340 62.326 -138.722
353.500 63.468 -179.005
373.750 64.594 138.479
395.160 65.710 93.660
417.800 66.831 46.462
441.730 67.977 -3.204
467.040 69.180 -55.574
493.800 70.470 -110.970
522.090 71.861 -169.874
552.000 73.338 127.145
583.620 74.855 59.606
617.050 76.346 -12.792
652.400 77.751 -90.157
689.780 79.024 -172.444
729.290 80.143 100.510
771.080 81.119 8.772
815.250 81.987 -87.573
861.950 82.805 171.227
911.330 83.621 64.648
963.540 84.445 -48.036
1018.740 85.233 -167.544
1077.110 85.892 65.644
1138.810 86.327 -68.316
1204.050 86.543 151.077
1273.030 86.653 3.791
1345.960 86.732 -150.973
1423.070 86.752 45.999
1504.590 86.674 -125.551
1590.790 86.547 54.322
1681.920 86.501 -135.119
1778.280 86.514 24.128
1880.150 86.315 171.735
1987.870 85.956 -50.773
2101.750 85.858 75.317
2222.150 85.809 -173.728
2349.460 85.358 -76.838
2484.060 84.889 7.893
2626.360 84.576 76.942
2776.820 84.085 129.922
2935.900 83.621 167.772
3104.100 83.469 -170.556
3281.930 83.890 -169.460
3469.940 84.557 169.477
3668.730 85.420 122.417
3878.910 85.900 49.994
4101.130 85.995 -47.598
4336.070 85.776 -170.385
4584.480 85.380 41.117
4847.120 85.149 -134.675
5124.810 85.155 19.384
5418.400 85.112 138.115
5728.810 84.698 -138.004
6057.010 83.741 -87.840
6404.000 82.891 -71.164
6770.880 82.981 -94.046
7158.770 83.346 -163.304
7568.890 82.927 78.820
8002.500 82.595 -83.304
8460.950 81.927 63.338
8945.670 81.728 154.377
9458.160 81.266 -169.385
10000.000 80.999 171.389
