# Freq(Hz) SPL(dB) Phase (degrees)
10.000 -1.604 159.168
10.570 -0.641 157.981
11.180 0.333 156.711
11.820 1.300 155.378
12.500 2.271 153.962
13.210 3.231 152.483
13.970 4.202 150.901
14.770 5.169 149.235
15.620 6.140 147.465
16.510 7.102 145.612
17.460 8.073 143.634
18.460 9.040 141.552
19.510 10.000 139.366
20.630 10.969 137.035
21.810 11.934 134.579
23.060 12.901 131.977
24.380 13.867 129.230
25.780 14.835 126.317
27.260 15.803 123.238
28.820 16.768 119.992
30.470 17.734 116.561
32.220 18.702 112.921
34.060 19.664 109.096
36.010 20.628 105.042
38.080 21.596 100.740
40.260 22.560 96.211
42.560 23.522 91.433
45.000 24.486 86.367
47.580 25.451 81.011
50.310 26.415 75.346
53.190 27.377 69.373
56.230 28.337 63.071
59.460 29.302 56.377
62.860 30.262 49.336
66.460 31.223 41.884
70.270 32.184 34.002
74.300 33.146 25.671
78.550 34.105 16.890
83.050 35.066 7.600
87.810 36.027 -2.220
92.840 36.988 -12.589
98.160 37.949 -23.549
103.780 38.911 -35.118
109.730 39.876 -47.358
116.020 40.842 -60.290
122.660 41.808 -73.935
129.690 42.779 -88.376
137.120 43.754 -103.637
144.970 44.731 -119.760
153.280 45.715 -136.834
162.060 46.704 -154.885
171.340 47.699 -173.982
181.160 48.700 165.783
191.540 49.708 144.359
202.510 50.722 121.671
214.110 51.742 97.624
226.380 52.766 72.125
239.350 53.792 45.100
253.060 54.817 16.458
267.560 55.840 -13.907
282.890 56.857 -46.080
299.090 57.863 -80.133
316.230 58.856 -116.199
334.340 59.832 -154.312
353.500 60.789 165.397
373.750 61.726 122.898
395.160 62.645 78.112
417.800 63.557 30.965
441.730 64.476 -18.606
467.040 65.432 -70.787
493.800 66.455 -125.837
522.090 67.570 175.805
552.000 68.777 113.559
583.620 70.035 46.853
617.050 71.276 -24.751
652.400 72.410 -101.446
689.780 73.359 176.894
729.290 74.075 90.708
771.080 74.581 0.454
815.250 74.969 -93.471
861.950 75.394 168.679
911.330 75.996 65.783
963.540 76.773 -44.002
1018.740 77.506 -162.182
1077.110 77.869 71.200
1138.810 77.636 -61.985
1204.050 76.953 160.901
1273.030 76.400 20.259
1345.960 76.279 -127.943
1423.070 76.157 73.396
1504.590 75.626 -94.467
1590.790 74.716 90.958
1681.920 73.797 -89.091
1778.280 73.468 84.486
1880.150 74.067 -114.689
1987.870 74.565 29.628
2101.750 74.736 164.493
2222.150 75.990 -73.762
2349.460 77.116 25.344
2484.060 77.180 110.295
2626.360 77.602 -176.528
2776.820 78.010 -125.218
2935.900 77.518 -89.444
3104.100 77.334 -67.527
3281.930 76.947 -70.321
3469.940 76.063 -90.216
3668.730 75.763 -128.677
3878.910 74.462 168.190
4101.130 74.464 83.136
4336.070 73.161 -25.772
4584.480 72.269 -166.569
4847.120 70.262 36.270
5124.810 69.783 -147.243
5418.400 71.994 -3.483
5728.810 73.466 92.194
6057.010 73.235 143.691
6404.000 72.000 156.224
6770.880 70.017 138.839
7158.770 67.829 87.788
7568.890 66.386 0.292
8002.500 65.721 -145.469
8460.950 63.922 19.197
8945.670 63.435 144.530
9458.160 62.158 -161.857
10000.000 59.824 176.236
