# Freq(Hz) SPL(dB) Phase (degrees)
10.000 -3.376 154.622
10.570 -2.413 153.176
11.180 -1.438 151.628
11.820 -0.471 150.004
12.500 0.501 148.278
13.210 1.461 146.477
13.970 2.433 144.548
14.770 3.400 142.518
15.620 4.373 140.361
16.510 5.335 138.103
17.460 6.308 135.692
18.460 7.276 133.154
19.510 8.237 130.490
20.630 9.207 127.648
21.810 10.174 124.653
23.060 11.143 121.481
24.380 12.110 118.132
25.780 13.081 114.579
27.260 14.051 110.823
28.820 15.019 106.864
30.470 15.987 102.677
32.220 16.958 98.236
34.060 17.924 93.566
36.010 18.893 88.617
38.080 19.865 83.364
40.260 20.834 77.832
42.560 21.801 71.994
45.000 22.772 65.802
47.580 23.742 59.254
50.310 24.714 52.325
53.190 25.684 45.015
56.230 26.653 37.298
59.460 27.628 29.100
62.860 28.598 20.469
66.460 29.570 11.330
70.270 30.544 1.657
74.300 31.519 -8.575
78.550 32.492 -19.366
83.050 33.468 -30.793
87.810 34.444 -42.882
92.840 35.422 -55.659
98.160 36.401 -69.174
103.780 37.380 -83.454
109.730 38.363 -98.576
116.020 39.347 -114.567
122.660 40.331 -131.452
129.690 41.318 -149.335
137.120 42.308 -168.243
144.970 43.299 171.771
153.280 44.294 150.603
162.060 45.290 128.224
171.340 46.290 104.556
181.160 47.292 79.492
191.540 48.298 52.979
202.510 49.306 24.936
214.110 50.316 -4.744
226.380 51.329 -36.165
239.350 52.343 -69.407
253.060 53.358 -104.575
267.560 54.375 -141.798
282.890 55.391 178.821
299.090 56.408 137.180
316.230 57.426 93.102
334.340 58.444 46.508
353.500 59.466 -2.810
373.750 60.491 -54.963
395.160 61.521 -110.148
417.800 62.559 -168.572
441.730 63.604 129.570
467.040 64.654 63.998
493.800 65.703 -5.521
522.090 66.741 -79.234
552.000 67.754 -157.391
583.620 68.730 119.795
617.050 69.657 32.111
652.400 70.527 -60.674
689.780 71.336 -158.792
729.290 72.078 97.553
771.080 72.751 -11.981
815.250 73.354 -127.613
861.950 73.886 110.284
911.330 74.343 -18.685
963.540 74.716 -154.971
1018.740 74.974 61.026
1077.110 75.075 -91.042
1138.810 75.001 108.905
1204.050 74.761 -59.332
1273.030 74.462 123.873
1345.960 74.114 -62.420
1423.070 73.664 101.038
1504.590 73.086 -106.136
1590.790 72.361 36.170
1681.920 71.646 167.075
1778.280 70.976 -75.172
1880.150 70.175 28.301
1987.870 69.172 116.931
2101.750 67.814 -170.118
2222.150 66.156 -114.191
2349.460 63.728 -76.000
2484.060 59.963 -59.190
2626.360 52.433 -76.370
2776.820 51.424 146.374
2935.900 60.034 83.695
3104.100 64.797 13.484
3281.930 67.452 -78.422
3469.940 69.100 166.250
3668.730 70.007 23.511
3878.910 70.363 -145.744
4101.130 70.202 17.970
4336.070 69.929 150.863
4584.480 69.573 -108.079
4847.120 68.927 -42.946
5124.810 67.927 -13.908
5418.400 65.947 -25.277
5728.810 64.266 -77.827
6057.010 62.496 -170.855
6404.000 57.681 37.795
6770.880 52.481 -121.346
7158.770 45.815 -10.567
7568.890 50.438 -148.235
8002.500 50.061 177.679
8460.950 58.100 112.252
8945.670 58.707 5.003
9458.160 61.065 179.693
10000.000 51.010 -83.656
