# Freq(Hz) SPL(dB) Phase (degrees)
10.000 -0.501 161.552
10.570 0.462 160.501
11.180 1.437 159.376
11.820 2.404 158.196
12.500 3.376 156.942
13.210 4.336 155.633
13.970 5.308 154.231
14.770 6.276 152.756
15.620 7.248 151.189
16.510 8.211 149.549
17.460 9.184 147.797
18.460 10.152 145.954
19.510 11.113 144.019
20.630 12.083 141.955
21.810 13.050 139.781
23.060 14.019 137.478
24.380 14.987 135.046
25.780 15.958 132.468
27.260 16.929 129.742
28.820 17.897 126.870
30.470 18.866 123.833
32.220 19.838 120.612
34.060 20.804 117.227
36.010 21.774 113.640
38.080 22.747 109.834
40.260 23.718 105.827
42.560 24.686 101.600
45.000 25.659 97.119
47.580 26.632 92.382
50.310 27.607 87.371
53.190 28.581 82.088
56.230 29.555 76.514
59.460 30.534 70.595
62.860 31.511 64.367
66.460 32.492 57.776
70.270 33.475 50.803
74.300 34.462 43.431
78.550 35.450 35.659
83.050 36.444 27.432
87.810 37.442 18.730
92.840 38.445 9.534
98.160 39.455 -0.196
103.780 40.471 -10.481
109.730 41.497 -21.381
116.020 42.532 -32.920
122.660 43.576 -45.124
129.690 44.634 -58.078
137.120 45.704 -71.812
144.970 46.786 -86.377
153.280 47.884 -101.866
162.060 48.995 -118.315
171.340 50.120 -135.802
181.160 51.258 -154.423
191.540 52.406 -174.237
202.510 53.562 164.681
214.110 54.721 142.237
226.380 55.881 118.347
239.350 57.035 92.950
253.060 58.177 65.977
267.560 59.303 37.351
282.890 60.407 7.029
299.090 61.485 -25.019
316.230 62.537 -58.871
334.340 63.565 -94.517
353.500 64.576 -132.048
373.750 65.582 -171.493
395.160 66.600 147.022
417.800 67.649 103.313
441.730 68.742 57.146
467.040 69.884 8.172
493.800 71.061 -43.921
522.090 72.244 -99.385
552.000 73.399 -158.328
583.620 74.510 139.297
617.050 75.599 73.534
652.400 76.718 4.168
689.780 77.901 -69.372
729.290 79.122 -147.750
771.080 80.307 128.547
815.250 81.386 39.505
861.950 82.330 -54.842
911.330 83.132 -154.550
963.540 83.772 100.309
1018.740 84.235 -10.104
1077.110 84.593 -125.425
1138.810 85.026 113.909
1204.050 85.593 -13.813
1273.030 86.130 -149.732
1345.960 86.529 66.155
1423.070 86.744 -86.446
1504.590 86.644 112.493
1590.790 86.223 -55.922
1681.920 85.718 128.735
1778.280 85.325 -54.819
1880.150 85.133 111.329
1987.870 84.800 -94.924
2101.750 84.004 48.420
2222.150 82.975 -175.479
2349.460 82.779 -47.129
2484.060 83.501 63.501
2626.360 83.939 155.777
2776.820 84.066 -125.356
2935.900 84.824 -61.230
3104.100 85.919 -19.634
3281.930 86.180 1.075
3469.940 86.424 7.631
3668.730 87.128 -10.497
3878.910 86.744 -50.031
4101.130 86.937 -107.035
4336.070 87.224 167.867
4584.480 87.228 59.295
4847.120 87.698 -78.404
5124.810 87.420 113.394
5418.400 87.298 -83.916
5728.810 86.084 45.621
6057.010 84.712 145.835
6404.000 82.629 -141.100
6770.880 81.517 -99.986
7158.770 81.971 -96.106
7568.890 82.977 -139.623
8002.500 83.948 124.826
8460.950 84.417 -19.910
8945.670 84.358 145.320
9458.160 83.765 -99.864
10000.000 82.946 -40.363
