# Freq(Hz) SPL(dB) Phase (degrees)
10.000 -2.360 157.345
10.570 -1.397 156.054
11.180 -0.423 154.672
11.820 0.544 153.223
12.500 1.515 151.683
13.210 2.475 150.075
13.970 3.446 148.353
14.770 4.413 146.541
15.620 5.384 144.616
16.510 6.347 142.600
17.460 7.318 140.449
18.460 8.285 138.184
19.510 9.245 135.806
20.630 10.213 133.270
21.810 11.179 130.598
23.060 12.146 127.767
24.380 13.111 124.778
25.780 14.080 121.608
27.260 15.048 118.257
28.820 16.013 114.726
30.470 16.978 110.990
32.220 17.946 107.029
34.060 18.908 102.864
36.010 19.873 98.451
38.080 20.841 93.767
40.260 21.804 88.834
42.560 22.766 83.630
45.000 23.730 78.111
47.580 24.694 72.276
50.310 25.658 66.102
53.190 26.620 59.591
56.230 27.579 52.719
59.460 28.542 45.420
62.860 29.501 37.738
66.460 30.460 29.606
70.270 31.420 21.003
74.300 32.378 11.906
78.550 33.334 2.315
83.050 34.290 -7.836
87.810 35.246 -18.569
92.840 36.200 -29.907
98.160 37.153 -41.893
103.780 38.104 -54.550
109.730 39.056 -67.944
116.020 40.006 -82.097
122.660 40.954 -97.031
129.690 41.902 -112.835
137.120 42.848 -129.532
144.970 43.793 -147.165
153.280 44.738 -165.826
162.060 45.682 174.465
171.340 46.625 153.638
181.160 47.567 131.603
191.540 48.508 108.315
202.510 49.448 83.706
214.110 50.386 57.686
226.380 51.323 30.164
239.350 52.257 1.074
253.060 53.190 -29.674
267.560 54.120 -62.189
282.890 55.048 -96.561
299.090 55.973 -132.881
316.230 56.897 -171.311
334.340 57.819 148.074
353.500 58.739 105.078
373.750 59.654 59.596
395.160 60.558 11.459
417.800 61.446 -39.484
441.730 62.308 -93.331
467.040 63.140 -150.207
493.800 63.944 149.839
522.090 64.735 86.721
552.000 65.540 20.247
583.620 66.380 -49.916
617.050 67.258 -124.206
652.400 68.152 156.987
689.780 69.038 73.442
729.290 69.913 -14.957
771.080 70.802 -108.564
815.250 71.720 152.081
861.950 72.621 46.183
911.330 73.395 -66.744
963.540 73.926 173.399
1018.740 74.150 47.190
1077.110 74.103 -84.584
1138.810 73.968 138.763
1204.050 74.155 -3.937
1273.030 74.669 -156.345
1345.960 75.058 39.198
1423.070 74.808 -136.312
1504.590 73.701 40.681
1590.790 72.094 -145.109
1681.920 71.423 25.797
1778.280 71.856 -178.614
1880.150 71.714 -40.643
1987.870 70.502 90.356
2101.750 70.573 -139.959
2222.150 72.763 -33.972
2349.460 74.069 46.554
2484.060 74.462 113.447
2626.360 75.360 165.514
2776.820 76.249 -165.737
2935.900 76.371 -156.579
3104.100 76.345 -165.940
3281.930 75.937 160.322
3469.940 74.924 108.362
3668.730 73.561 27.735
3878.910 69.375 -67.754
4101.130 67.409 174.951
4336.070 61.840 64.749
4584.480 64.945 -92.823
4847.120 66.786 79.135
5124.810 68.118 -166.438
5418.400 68.567 -84.091
5728.810 67.480 -30.206
6057.010 65.411 -17.567
6404.000 64.964 -34.738
6770.880 65.352 -89.917
7158.770 66.514 153.861
7568.890 66.581 -31.922
8002.500 62.247 120.625
8460.950 58.739 -160.852
8945.670 57.652 -75.946
9458.160 61.840 -92.179
10000.000 57.159 -158.215
