# Freq(Hz) SPL(dB) Phase (degrees)
10.000 -3.118 155.343
10.570 -2.155 153.938
11.180 -1.181 152.434
11.820 -0.214 150.857
12.500 0.758 149.180
13.210 1.718 147.430
13.970 2.690 145.556
14.770 3.657 143.584
15.620 4.629 141.488
16.510 5.592 139.294
17.460 6.563 136.952
18.460 7.531 134.486
19.510 8.492 131.898
20.630 9.462 129.137
21.810 10.428 126.227
23.060 11.396 123.146
24.380 12.363 119.891
25.780 13.333 116.440
27.260 14.303 112.791
28.820 15.270 108.945
30.470 16.237 104.877
32.220 17.207 100.562
34.060 18.172 96.026
36.010 19.139 91.218
38.080 20.110 86.115
40.260 21.077 80.740
42.560 22.043 75.070
45.000 23.011 69.054
47.580 23.980 62.693
50.310 24.949 55.962
53.190 25.917 48.862
56.230 26.883 41.366
59.460 27.853 33.403
62.860 28.820 25.019
66.460 29.788 16.143
70.270 30.757 6.748
74.300 31.726 -3.189
78.550 32.694 -13.669
83.050 33.662 -24.767
87.810 34.632 -36.507
92.840 35.601 -48.913
98.160 36.571 -62.037
103.780 37.540 -75.903
109.730 38.511 -90.585
116.020 39.483 -106.110
122.660 40.453 -122.503
129.690 41.425 -139.863
137.120 42.397 -158.218
144.970 43.369 -177.619
153.280 44.342 161.834
162.060 45.315 140.113
171.340 46.287 117.142
181.160 47.260 92.817
191.540 48.231 67.088
202.510 49.201 39.875
214.110 50.168 11.077
226.380 51.132 -19.407
239.350 52.092 -51.652
253.060 53.045 -85.757
267.560 53.990 -121.844
282.890 54.927 -160.007
299.090 55.854 159.662
316.230 56.769 116.997
334.340 57.674 71.931
353.500 58.567 24.268
373.750 59.450 -26.092
395.160 60.322 -79.336
417.800 61.181 -135.661
441.730 62.022 164.757
467.040 62.835 101.674
493.800 63.603 34.934
522.090 64.308 -35.571
552.000 64.938 -109.870
583.620 65.500 172.085
617.050 66.034 90.284
652.400 66.604 4.477
689.780 67.266 -85.896
729.290 68.036 178.433
771.080 68.883 76.669
815.250 69.755 -31.651
861.950 70.602 -146.940
911.330 71.383 90.446
963.540 72.058 -39.862
1018.740 72.579 -178.279
1077.110 72.854 34.844
1138.810 72.771 -120.339
1204.050 72.268 76.865
1273.030 71.403 -92.570
1345.960 70.373 92.185
1423.070 69.613 -89.008
1504.590 69.541 80.574
1590.790 70.000 -123.936
1681.920 70.446 15.725
1778.280 70.643 139.942
1880.150 70.356 -111.599
1987.870 69.406 -19.638
2101.750 67.302 56.590
2222.150 63.520 119.952
2349.460 57.304 -177.745
2484.060 53.904 -90.803
2626.360 57.319 -51.743
2776.820 58.440 -63.691
2935.900 56.151 -119.000
3104.100 52.787 122.394
3281.930 56.158 -18.771
3469.940 56.822 -142.756
3668.730 46.834 77.137
3878.910 56.562 64.544
4101.130 62.940 -128.243
4336.070 63.777 14.148
4584.480 62.614 153.394
4847.120 65.718 -98.705
5124.810 67.838 -48.075
5418.400 66.859 -35.027
5728.810 66.234 -39.916
6057.010 67.332 -97.502
6404.000 64.522 148.357
6770.880 62.658 9.478
7158.770 62.358 153.356
7568.890 61.486 -99.588
8002.500 54.200 -37.626
8460.950 50.588 -130.658
8945.670 53.143 -128.769
9458.160 47.674 -15.345
10000.000 48.472 -148.911
