# Freq(Hz) SPL(dB) Phase (degrees)
10.000 -2.760 156.315
10.570 -1.797 154.965
11.180 -0.822 153.520
11.820 0.144 152.005
12.500 1.116 150.394
13.210 2.075 148.713
13.970 3.046 146.913
14.770 4.013 145.019
15.620 4.985 143.006
16.510 5.947 140.898
17.460 6.918 138.649
18.460 7.885 136.281
19.510 8.845 133.794
20.630 9.814 131.142
21.810 10.780 128.348
23.060 11.747 125.388
24.380 12.712 122.263
25.780 13.681 118.948
27.260 14.649 115.444
28.820 15.614 111.751
30.470 16.580 107.845
32.220 17.548 103.702
34.060 18.510 99.346
36.010 19.475 94.731
38.080 20.443 89.831
40.260 21.407 84.672
42.560 22.369 79.229
45.000 23.333 73.455
47.580 24.297 67.351
50.310 25.262 60.892
53.190 26.223 54.080
56.230 27.183 46.890
59.460 28.147 39.251
62.860 29.105 31.212
66.460 30.065 22.702
70.270 31.024 13.697
74.300 31.983 4.174
78.550 32.938 -5.867
83.050 33.893 -16.495
87.810 34.848 -27.734
92.840 35.801 -39.606
98.160 36.752 -52.159
103.780 37.701 -65.415
109.730 38.650 -79.444
116.020 39.596 -94.268
122.660 40.539 -109.909
129.690 41.481 -126.460
137.120 42.419 -143.942
144.970 43.355 -162.401
153.280 44.289 178.071
162.060 45.218 157.455
171.340 46.145 135.684
181.160 47.068 112.669
191.540 47.988 88.367
202.510 48.904 62.714
214.110 49.817 35.625
226.380 50.728 7.014
239.350 51.637 -23.180
253.060 52.545 -55.040
267.560 53.455 -88.676
282.890 54.369 -124.175
299.090 55.290 -161.627
316.230 56.224 158.799
334.340 57.174 117.020
353.500 58.144 72.825
373.750 59.137 26.085
395.160 60.155 -23.406
417.800 61.199 -75.857
441.730 62.264 -131.450
467.040 63.350 169.571
493.800 64.453 107.011
522.090 65.574 40.640
552.000 66.710 -29.827
583.620 67.854 -104.719
617.050 68.983 175.605
652.400 70.060 90.837
689.780 71.039 0.842
729.290 71.892 -94.313
771.080 72.623 165.365
815.250 73.265 59.852
861.950 73.847 -51.172
911.330 74.384 -168.053
963.540 74.895 68.885
1018.740 75.422 -60.778
1077.110 75.989 162.144
1138.810 76.551 16.806
1204.050 77.033 -137.259
1273.030 77.376 59.691
1345.960 77.562 -112.533
1423.070 77.571 65.731
1504.590 77.358 -125.779
1590.790 76.891 33.256
1681.920 76.319 -176.890
1778.280 75.777 -37.107
1880.150 75.383 91.880
1987.870 75.277 -152.134
2101.750 75.272 -51.036
2222.150 75.181 34.658
2349.460 74.955 105.620
2484.060 74.870 161.752
2626.360 75.083 -159.541
2776.820 75.572 -140.665
2935.900 75.982 -144.341
3104.100 76.385 -167.658
3281.930 76.054 146.206
3469.940 76.258 76.617
3668.730 75.937 -19.363
3878.910 75.250 -136.723
4101.130 75.237 80.350
4336.070 75.300 -95.774
4584.480 74.716 57.902
4847.120 74.118 -178.204
5124.810 73.776 -88.773
5418.400 73.070 -35.073
5728.810 72.857 -18.223
6057.010 72.273 -44.983
6404.000 70.998 -111.619
6770.880 69.762 136.310
7158.770 69.280 -18.542
7568.890 66.352 130.135
8002.500 68.384 -129.339
8460.950 67.528 -93.318
8945.670 66.338 -115.225
9458.160 63.810 162.448
10000.000 61.570 15.049
