# Freq(Hz) SPL(dB) Phase (degrees)
10.000 -3.216 155.075
10.570 -2.253 153.654
11.180 -1.278 152.134
11.820 -0.311 150.539
12.500 0.661 148.844
13.210 1.620 147.075
13.970 2.592 145.181
14.770 3.559 143.187
15.620 4.531 141.068
16.510 5.494 138.850
17.460 6.466 136.482
18.460 7.433 133.990
19.510 8.394 131.373
20.630 9.364 128.582
21.810 10.330 125.641
23.060 11.298 122.526
24.380 12.265 119.236
25.780 13.235 115.747
27.260 14.205 112.058
28.820 15.171 108.170
30.470 16.138 104.058
32.220 17.108 99.696
34.060 18.073 95.111
36.010 19.040 90.251
38.080 20.011 85.092
40.260 20.978 79.659
42.560 21.943 73.927
45.000 22.911 67.845
47.580 23.879 61.415
50.310 24.848 54.612
53.190 25.815 47.434
56.230 26.781 39.858
59.460 27.751 31.807
62.860 28.716 23.334
66.460 29.684 14.361
70.270 30.652 4.866
74.300 31.621 -5.179
78.550 32.587 -15.772
83.050 33.554 -26.988
87.810 34.522 -38.853
92.840 35.490 -51.391
98.160 36.458 -64.654
103.780 37.425 -78.665
109.730 38.394 -93.501
116.020 39.363 -109.186
122.660 40.330 -125.747
129.690 41.298 -143.283
137.120 42.266 -161.821
144.970 43.233 178.588
153.280 44.202 157.844
162.060 45.169 135.920
171.340 46.135 112.741
181.160 47.101 88.204
191.540 48.065 62.259
202.510 49.027 34.830
214.110 49.987 5.817
226.380 50.944 -24.880
239.350 51.896 -57.334
253.060 52.844 -91.642
267.560 53.786 -127.925
282.890 54.722 -166.276
299.090 55.651 153.212
316.230 56.573 110.372
334.340 57.489 65.136
353.500 58.400 17.309
373.750 59.306 -33.207
395.160 60.208 -86.592
417.800 61.107 -143.032
441.730 62.001 157.311
467.040 62.887 94.204
493.800 63.760 27.476
522.090 64.614 -43.039
552.000 65.448 -117.507
583.620 66.266 163.916
617.050 67.083 81.016
652.400 67.914 -6.525
689.780 68.764 -99.091
729.290 69.626 162.971
771.080 70.487 59.276
815.250 71.346 -50.401
861.950 72.208 -166.471
911.330 73.070 70.600
963.540 73.922 -59.642
1018.740 74.754 162.297
1077.110 75.534 15.746
1138.810 76.184 -139.761
1204.050 76.624 55.978
1273.030 76.891 -117.111
1345.960 77.040 60.710
1423.070 77.102 -131.325
1504.590 77.057 26.216
1590.790 76.846 172.879
1681.920 76.519 -51.300
1778.280 76.166 72.824
1880.150 75.785 -175.505
1987.870 75.416 -77.136
2101.750 75.070 6.970
2222.150 74.721 76.059
2349.460 74.486 129.739
2484.060 74.499 165.941
2626.360 74.689 -177.527
2776.820 74.894 177.392
2935.900 74.844 149.711
3104.100 74.236 99.956
3281.930 73.383 30.134
3469.940 72.732 -59.054
3668.730 72.953 -174.563
3878.910 73.510 36.811
4101.130 73.335 -145.417
4336.070 72.811 3.045
4584.480 71.575 119.839
4847.120 70.007 -152.424
5124.810 68.929 -97.651
5418.400 68.707 -82.604
5728.810 68.282 -115.893
6057.010 66.170 174.256
6404.000 64.674 73.046
6770.880 65.044 -94.303
7158.770 64.016 44.366
7568.890 61.409 112.586
8002.500 55.437 170.018
8460.950 55.189 161.371
8945.670 44.958 154.588
9458.160 54.120 -45.273
10000.000 45.736 81.204
