# Freq(Hz) SPL(dB) Phase (degrees)
10.000 -3.380 154.612
10.570 -2.416 153.165
11.180 -1.442 151.617
11.820 -0.474 149.992
12.500 0.497 148.266
13.210 1.457 146.463
13.970 2.429 144.534
14.770 3.397 142.503
15.620 4.369 140.345
16.510 5.332 138.086
17.460 6.304 135.674
18.460 7.272 133.136
19.510 8.234 130.470
20.630 9.204 127.627
21.810 10.171 124.631
23.060 11.140 121.458
24.380 12.107 118.107
25.780 13.078 114.553
27.260 14.049 110.795
28.820 15.016 106.835
30.470 15.985 102.646
32.220 16.956 98.203
34.060 17.922 93.531
36.010 18.891 88.581
38.080 19.863 83.325
40.260 20.832 77.790
42.560 21.800 71.951
45.000 22.771 65.755
47.580 23.742 59.205
50.310 24.714 52.273
53.190 25.684 44.960
56.230 26.654 37.240
59.460 27.628 29.038
62.860 28.599 20.403
66.460 29.572 11.260
70.270 30.546 1.583
74.300 31.522 -8.654
78.550 32.496 -19.450
83.050 33.472 -30.883
87.810 34.450 -42.978
92.840 35.429 -55.761
98.160 36.409 -69.283
103.780 37.390 -83.571
109.730 38.374 -98.701
116.020 39.360 -114.701
122.660 40.346 -131.596
129.690 41.336 -149.490
137.120 42.327 -168.411
144.970 43.321 171.589
153.280 44.319 150.405
162.060 45.320 128.009
171.340 46.323 104.320
181.160 47.330 79.234
191.540 48.340 52.695
202.510 49.353 24.622
214.110 50.369 -5.092
226.380 51.388 -36.552
239.350 52.409 -69.839
253.060 53.432 -105.059
267.560 54.456 -142.342
282.890 55.481 178.210
299.090 56.506 136.493
316.230 57.533 92.328
334.340 58.561 45.636
353.500 59.592 -3.791
373.750 60.628 -56.066
395.160 61.670 -111.389
417.800 62.720 -169.970
441.730 63.778 127.993
467.040 64.841 62.210
493.800 65.904 -7.557
522.090 66.954 -81.565
552.000 67.976 -160.066
583.620 68.956 116.727
617.050 69.879 28.606
652.400 70.738 -64.651
689.780 71.526 -163.271
729.290 72.239 92.546
771.080 72.873 -17.547
815.250 73.426 -133.777
861.950 73.892 103.484
911.330 74.263 -26.135
963.540 74.531 -163.066
1018.740 74.667 52.274
1077.110 74.619 -100.532
1138.810 74.337 98.577
1204.050 73.817 -70.415
1273.030 73.138 112.441
1345.960 72.348 -73.509
1423.070 71.411 90.959
1504.590 70.293 -114.506
1590.790 68.883 31.057
1681.920 67.528 168.305
1778.280 66.627 -64.899
1880.150 66.104 48.143
1987.870 65.703 146.798
2101.750 65.540 -128.355
2222.150 65.921 -62.637
2349.460 66.042 -15.357
2484.060 66.276 15.268
2626.360 66.915 24.615
2776.820 67.473 11.238
2935.900 68.038 -25.597
3104.100 68.529 -89.624
3281.930 68.293 179.422
3469.940 67.454 60.522
3668.730 65.909 -88.918
3878.910 62.447 93.443
4101.130 60.308 -135.095
4336.070 58.395 -56.720
4584.480 61.905 10.473
4847.120 64.160 55.389
5124.810 66.095 62.654
5418.400 66.420 38.105
5728.810 66.944 -25.459
6057.010 65.374 -136.605
6404.000 62.125 71.282
6770.880 51.086 -132.732
7158.770 46.886 -9.039
7568.890 50.408 131.230
8002.500 53.369 112.705
8460.950 57.367 70.910
8945.670 54.034 -97.809
9458.160 52.898 49.395
10000.000 44.095 94.908
