# Freq(Hz) SPL(dB) Phase (degrees)
10.000 -2.692 156.491
10.570 -1.729 155.151
11.180 -0.755 153.717
11.820 0.212 152.213
12.500 1.184 150.614
13.210 2.143 148.945
13.970 3.114 147.159
14.770 4.082 145.279
15.620 5.053 143.281
16.510 6.015 141.189
17.460 6.987 138.956
18.460 7.954 136.605
19.510 8.914 134.137
20.630 9.883 131.505
21.810 10.849 128.732
23.060 11.816 125.794
24.380 12.782 122.691
25.780 13.751 119.401
27.260 14.720 115.923
28.820 15.685 112.257
30.470 16.651 108.379
32.220 17.620 104.267
34.060 18.583 99.943
36.010 19.548 95.361
38.080 20.517 90.498
40.260 21.482 85.376
42.560 22.444 79.973
45.000 23.410 74.241
47.580 24.375 68.181
50.310 25.341 61.768
53.190 26.304 55.005
56.230 27.266 47.866
59.460 28.231 40.281
62.860 29.192 32.299
66.460 30.154 23.848
70.270 31.116 14.905
74.300 32.077 5.447
78.550 33.036 -4.526
83.050 33.995 -15.084
87.810 34.955 -26.250
92.840 35.912 -38.047
98.160 36.869 -50.523
103.780 37.825 -63.700
109.730 38.780 -77.649
116.020 39.735 -92.393
122.660 40.687 -107.955
129.690 41.638 -124.429
137.120 42.588 -141.838
144.970 43.536 -160.231
153.280 44.484 -179.700
162.060 45.429 159.729
171.340 46.371 137.987
181.160 47.311 114.979
191.540 48.248 90.658
202.510 49.181 64.954
214.110 50.109 37.775
226.380 51.032 9.029
239.350 51.949 -21.350
253.060 52.858 -53.448
267.560 53.759 -87.376
282.890 54.653 -123.217
299.090 55.538 -161.055
316.230 56.418 158.956
334.340 57.292 116.749
353.500 58.164 72.132
373.750 59.033 24.996
395.160 59.901 -24.844
417.800 60.763 -77.578
441.730 61.614 -133.356
467.040 62.446 167.633
493.800 63.253 105.291
522.090 64.041 39.520
552.000 64.831 -29.849
583.620 65.646 -103.142
617.050 66.493 179.112
652.400 67.330 96.346
689.780 68.081 8.256
729.290 68.668 -85.036
771.080 69.061 176.814
815.250 69.307 74.391
861.950 69.554 -32.111
911.330 70.013 -143.426
963.540 70.814 98.523
1018.740 71.841 -28.678
1077.110 72.775 -166.419
1138.810 73.248 45.541
1204.050 73.017 -110.888
1273.030 72.066 86.457
1345.960 70.661 -79.527
1423.070 69.663 112.256
1504.590 69.910 -65.471
1590.790 70.466 98.281
1681.920 70.051 -113.923
1778.280 68.083 23.119
1880.150 64.157 161.432
1987.870 63.010 -40.290
2101.750 66.812 79.940
2222.150 68.761 168.745
2349.460 69.174 -114.908
2484.060 70.376 -47.233
2626.360 72.850 -5.576
2776.820 74.279 8.600
2935.900 74.399 5.925
3104.100 74.825 -11.640
3281.930 75.724 -57.380
3469.940 75.263 -128.136
3668.730 74.270 143.787
3878.910 73.434 27.631
4101.130 71.576 -112.570
4336.070 70.055 90.334
4584.480 68.770 -102.553
4847.120 67.703 47.933
5124.810 68.338 151.758
5418.400 68.854 -138.960
5728.810 68.818 -121.391
6057.010 67.806 -139.802
6404.000 65.138 158.074
6770.880 62.020 64.956
7158.770 55.296 -24.346
7568.890 56.434 164.774
8002.500 58.906 -67.354
8460.950 60.318 -17.000
8945.670 60.657 -23.165
9458.160 59.513 -97.664
10000.000 56.313 132.614
