# Freq(Hz) SPL(dB) Phase (degrees)
10.000 -0.499 161.555
10.570 0.464 160.504
11.180 1.439 159.380
11.820 2.406 158.200
12.500 3.378 156.946
13.210 4.338 155.637
13.970 5.310 154.236
14.770 6.277 152.762
15.620 7.250 151.195
16.510 8.213 149.554
17.460 9.185 147.803
18.460 10.153 145.961
19.510 11.114 144.026
20.630 12.085 141.962
21.810 13.051 139.788
23.060 14.020 137.486
24.380 14.988 135.055
25.780 15.959 132.477
27.260 16.930 129.752
28.820 17.897 126.880
30.470 18.866 123.843
32.220 19.838 120.623
34.060 20.804 117.238
36.010 21.773 113.652
38.080 22.747 109.847
40.260 23.717 105.840
42.560 24.685 101.615
45.000 25.658 97.134
47.580 26.631 92.397
50.310 27.605 87.388
53.190 28.578 82.105
56.230 29.551 76.532
59.460 30.530 70.614
62.860 31.507 64.386
66.460 32.486 57.796
70.270 33.469 50.824
74.300 34.455 43.453
78.550 35.442 35.681
83.050 36.434 27.455
87.810 37.431 18.753
92.840 38.433 9.557
98.160 39.440 -0.172
103.780 40.455 -10.457
109.730 41.478 -21.356
116.020 42.511 -32.895
122.660 43.552 -45.099
129.690 44.606 -58.053
137.120 45.671 -71.786
144.970 46.749 -86.351
153.280 47.841 -101.837
162.060 48.946 -118.283
171.340 50.064 -135.765
181.160 51.193 -154.378
191.540 52.332 -174.181
202.510 53.477 164.752
214.110 54.625 142.330
226.380 55.772 118.467
239.350 56.912 93.106
253.060 58.038 66.178
267.560 59.147 37.609
282.890 60.233 7.354
299.090 61.292 -24.614
316.230 62.324 -58.373
334.340 63.330 -93.912
353.500 64.319 -131.322
373.750 65.301 -170.631
395.160 66.293 148.038
417.800 67.313 104.508
441.730 68.374 58.552
467.040 69.483 9.837
493.800 70.626 -41.932
522.090 71.778 -96.995
552.000 72.914 -155.470
583.620 74.023 142.652
617.050 75.130 77.333
652.400 76.277 8.272
689.780 77.484 -65.142
729.290 78.706 -143.539
771.080 79.857 132.677
815.250 80.860 43.607
861.950 81.684 -50.539
911.330 82.341 -149.614
963.540 82.857 106.415
1018.740 83.273 -2.426
1077.110 83.700 -116.232
1138.810 84.281 123.875
1204.050 84.957 -4.013
1273.030 85.455 -140.589
1345.960 85.632 74.992
1423.070 85.518 -76.624
1504.590 85.160 124.893
1590.790 84.738 -40.159
1681.920 84.515 146.641
1778.280 84.309 -37.418
1880.150 83.775 127.895
1987.870 82.768 -75.079
2101.750 81.922 76.638
2222.150 81.959 -142.524
2349.460 82.322 -17.060
2484.060 82.578 94.335
2626.360 83.415 -166.101
2776.820 84.787 -88.229
2935.900 85.496 -29.323
3104.100 86.144 15.391
3281.930 87.259 38.208
3469.940 87.546 38.684
3668.730 87.580 23.372
3878.910 87.761 -15.511
4101.130 87.379 -75.842
4336.070 87.425 -156.353
4584.480 87.328 92.578
4847.120 86.984 -41.491
5124.810 86.389 152.179
5418.400 85.345 -38.565
5728.810 83.717 99.440
6057.010 82.605 -147.688
6404.000 82.214 -64.609
6770.880 82.893 -25.219
7158.770 84.021 -30.285
7568.890 84.564 -82.125
8002.500 84.491 -178.372
8460.950 83.700 38.448
8945.670 82.339 -152.552
9458.160 79.941 -29.424
10000.000 78.975 45.608
