# Freq(Hz) SPL(dB) Phase (degrees)
10.000 -2.791 156.229
10.570 -1.828 154.874
11.180 -0.854 153.424
11.820 0.113 151.903
12.500 1.084 150.287
13.210 2.044 148.599
13.970 3.015 146.793
14.770 3.983 144.892
15.620 4.954 142.871
16.510 5.917 140.756
17.460 6.888 138.498
18.460 7.855 136.121
19.510 8.816 133.626
20.630 9.785 130.964
21.810 10.751 128.160
23.060 11.718 125.189
24.380 12.684 122.052
25.780 13.654 118.725
27.260 14.623 115.208
28.820 15.588 111.500
30.470 16.554 107.579
32.220 17.523 103.421
34.060 18.487 99.048
36.010 19.452 94.415
38.080 20.422 89.497
40.260 21.387 84.317
42.560 22.350 78.852
45.000 23.316 73.056
47.580 24.282 66.926
50.310 25.248 60.441
53.190 26.212 53.600
56.230 27.174 46.380
59.460 28.141 38.708
62.860 29.103 30.634
66.460 30.066 22.085
70.270 31.029 13.039
74.300 31.992 3.471
78.550 32.952 -6.619
83.050 33.913 -17.301
87.810 34.874 -28.599
92.840 35.834 -40.537
98.160 36.793 -53.162
103.780 37.751 -66.498
109.730 38.709 -80.616
116.020 39.667 -95.540
122.660 40.621 -111.294
129.690 41.576 -127.973
137.120 42.530 -145.602
144.970 43.481 -164.228
153.280 44.432 176.053
162.060 45.381 155.217
171.340 46.327 133.190
181.160 47.271 109.878
191.540 48.212 85.232
202.510 49.148 59.180
214.110 50.079 31.629
226.380 51.005 2.486
239.350 51.924 -28.317
253.060 52.834 -60.868
267.560 53.736 -95.278
282.890 54.628 -131.632
299.090 55.510 -170.011
316.230 56.383 149.431
334.340 57.248 106.629
353.500 58.108 61.396
373.750 58.963 13.628
395.160 59.815 -36.858
417.800 60.661 -90.251
441.730 61.496 -146.707
467.040 62.314 153.575
493.800 63.106 90.492
522.090 63.878 23.958
552.000 64.650 -46.163
583.620 65.455 -120.161
617.050 66.316 161.414
652.400 67.206 77.870
689.780 68.049 -11.300
729.290 68.748 -106.189
771.080 69.234 153.365
815.250 69.479 47.887
861.950 69.530 -62.088
911.330 69.531 -176.165
963.540 69.738 65.308
1018.740 70.380 -59.871
1077.110 71.365 165.116
1138.810 72.276 18.576
1204.050 72.709 -138.717
1273.030 72.517 54.592
1345.960 71.642 -120.008
1423.070 70.095 59.457
1504.590 68.275 -123.932
1590.790 67.344 48.165
1681.920 67.493 -153.770
1778.280 67.522 -15.320
1880.150 66.066 105.574
1987.870 61.298 -139.328
2101.750 57.766 28.522
2222.150 65.220 135.579
2349.460 68.176 -162.301
2484.060 68.592 -111.639
2626.360 69.405 -66.140
2776.820 71.725 -45.521
2935.900 73.255 -54.293
3104.100 73.490 -83.634
3281.930 73.322 -128.560
3469.940 73.964 162.919
3668.730 73.688 61.793
3878.910 71.737 -56.866
4101.130 71.455 165.003
4336.070 69.739 -9.836
4584.480 68.674 160.514
4847.120 68.659 -67.873
5124.810 67.751 29.974
5418.400 69.148 90.867
5728.810 68.057 107.580
6057.010 67.662 79.278
6404.000 64.781 13.730
6770.880 61.133 -107.956
7158.770 56.435 131.941
7568.890 54.076 -66.431
8002.500 52.200 133.462
8460.950 56.870 156.470
8945.670 60.587 134.544
9458.160 61.343 57.749
10000.000 57.490 -108.345
