# Freq(Hz) SPL(dB) Phase (degrees)
10.000 -0.605 161.340
10.570 0.359 160.277
11.180 1.333 159.139
11.820 2.301 157.945
12.500 3.272 156.677
13.210 4.232 155.353
13.970 5.204 153.935
14.770 6.172 152.443
15.620 7.144 150.858
16.510 8.107 149.199
17.460 9.079 147.427
18.460 10.047 145.563
19.510 11.009 143.606
20.630 11.979 141.518
21.810 12.946 139.319
23.060 13.915 136.989
24.380 14.882 134.530
25.780 15.853 131.922
27.260 16.824 129.165
28.820 17.792 126.260
30.470 18.760 123.188
32.220 19.732 119.931
34.060 20.698 116.507
36.010 21.668 112.879
38.080 22.641 109.029
40.260 23.611 104.976
42.560 24.579 100.702
45.000 25.551 96.169
47.580 26.524 91.378
50.310 27.499 86.312
53.190 28.472 80.969
56.230 29.445 75.332
59.460 30.423 69.347
62.860 31.400 63.049
66.460 32.379 56.385
70.270 33.362 49.336
74.300 34.347 41.884
78.550 35.334 34.029
83.050 36.325 25.714
87.810 37.322 16.921
92.840 38.323 7.631
98.160 39.331 -2.196
103.780 40.345 -12.581
109.730 41.368 -23.583
116.020 42.401 -35.227
122.660 43.443 -47.539
129.690 44.499 -60.601
137.120 45.567 -74.444
144.970 46.648 -89.120
153.280 47.746 -104.720
162.060 48.858 -121.282
171.340 49.985 -138.882
181.160 51.128 -157.621
191.540 52.283 -177.556
202.510 53.449 161.231
214.110 54.621 138.648
226.380 55.798 114.602
239.350 56.972 89.030
253.060 58.138 61.858
267.560 59.292 33.004
282.890 60.428 2.417
299.090 61.541 -29.937
316.230 62.632 -64.140
334.340 63.700 -100.186
353.500 64.754 -138.167
373.750 65.805 -178.111
395.160 66.870 139.859
417.800 67.970 95.557
441.730 69.121 48.739
467.040 70.330 -0.975
493.800 71.585 -53.955
522.090 72.850 -110.524
552.000 74.078 -170.863
583.620 75.227 125.064
617.050 76.289 57.415
652.400 77.294 -13.723
689.780 78.301 -88.525
729.290 79.348 -167.447
771.080 80.433 108.867
815.250 81.521 20.011
861.950 82.575 -74.341
911.330 83.568 -174.429
963.540 84.480 79.507
1018.740 85.287 -32.824
1077.110 85.951 -151.664
1138.810 86.433 82.997
1204.050 86.733 -48.726
1273.030 86.913 173.171
1345.960 87.044 28.261
1423.070 87.164 -124.060
1504.590 87.339 75.534
1590.790 87.574 -94.614
1681.920 87.615 84.561
1778.280 87.322 -105.944
1880.150 86.812 54.411
1987.870 86.112 -154.792
2101.750 85.380 -12.743
2222.150 85.053 119.020
2349.460 85.079 -123.924
2484.060 84.912 -22.558
2626.360 84.401 65.947
2776.820 84.248 142.175
2935.900 84.623 -159.671
3104.100 84.866 -122.504
3281.930 84.580 -103.467
3469.940 84.296 -99.409
3668.730 84.675 -116.299
3878.910 84.830 -159.509
4101.130 84.463 138.410
4336.070 84.926 53.178
4584.480 85.070 -63.087
4847.120 85.046 159.036
5124.810 85.585 -10.850
5418.400 85.543 148.919
5728.810 85.993 -81.451
6057.010 86.339 9.730
6404.000 86.614 66.950
6770.880 86.528 82.115
7158.770 86.247 60.713
7568.890 85.342 -3.963
8002.500 84.816 -108.691
8460.950 83.767 102.750
8945.670 83.859 -94.757
9458.160 84.253 11.707
10000.000 84.699 59.648
