# Freq(Hz) SPL(dB) Phase (degrees)
10.000 -0.553 161.447
10.570 0.410 160.389
11.180 1.385 159.258
11.820 2.352 158.071
12.500 3.324 156.810
13.210 4.284 155.494
13.970 5.256 154.084
14.770 6.223 152.601
15.620 7.195 151.025
16.510 8.158 149.375
17.460 9.130 147.614
18.460 10.098 145.760
19.510 11.060 143.814
20.630 12.030 141.738
21.810 12.996 139.551
23.060 13.965 137.235
24.380 14.932 134.789
25.780 15.903 132.196
27.260 16.874 129.455
28.820 17.841 126.566
30.470 18.809 123.512
32.220 19.781 120.273
34.060 20.747 116.868
36.010 21.715 113.261
38.080 22.688 109.433
40.260 23.658 105.403
42.560 24.625 101.152
45.000 25.597 96.645
47.580 26.569 91.880
50.310 27.542 86.841
53.190 28.515 81.528
56.230 29.486 75.922
59.460 30.464 69.969
62.860 31.439 63.705
66.460 32.417 57.077
70.270 33.397 50.064
74.300 34.381 42.651
78.550 35.365 34.835
83.050 36.354 26.562
87.810 37.348 17.812
92.840 38.346 8.565
98.160 39.350 -1.217
103.780 40.359 -11.555
109.730 41.377 -22.511
116.020 42.404 -34.107
122.660 43.439 -46.370
129.690 44.485 -59.383
137.120 45.543 -73.176
144.970 46.612 -87.800
153.280 47.695 -103.346
162.060 48.790 -119.849
171.340 49.896 -137.387
181.160 51.015 -156.053
191.540 52.142 -175.906
202.510 53.274 162.979
214.110 54.409 140.514
226.380 55.542 116.611
239.350 56.668 91.213
253.060 57.781 64.252
267.560 58.876 35.651
282.890 59.948 5.367
299.090 60.993 -26.632
316.230 62.011 -60.423
334.340 63.004 -95.999
353.500 63.978 -133.449
373.750 64.944 -172.801
395.160 65.918 145.824
417.800 66.918 102.254
441.730 67.959 56.269
467.040 69.046 7.538
493.800 70.170 -44.238
522.090 71.308 -99.317
552.000 72.430 -157.845
583.620 73.524 140.150
617.050 74.601 74.633
652.400 75.696 5.379
689.780 76.830 -68.102
729.290 77.977 -146.395
771.080 79.064 130.015
815.250 80.004 41.163
861.950 80.754 -52.644
911.330 81.346 -151.039
963.540 81.879 105.963
1018.740 82.440 -2.316
1077.110 83.033 -116.864
1138.810 83.582 121.593
1204.050 84.015 -7.303
1273.030 84.207 -143.776
1345.960 84.066 72.963
1423.070 83.751 -75.813
1504.590 83.652 128.807
1590.790 83.693 -36.787
1681.920 83.412 147.225
1778.280 82.675 -37.552
1880.150 81.482 131.251
1987.870 80.675 -63.409
2101.750 81.085 89.162
2222.150 81.253 -134.506
2349.460 81.260 -7.537
2484.060 82.208 107.689
2626.360 83.726 -158.214
2776.820 84.581 -82.876
2935.900 85.382 -21.327
3104.100 86.534 19.279
3281.930 86.929 39.982
3469.940 87.377 43.764
3668.730 87.563 22.942
3878.910 86.816 -14.822
4101.130 86.884 -74.631
4336.070 86.117 -158.836
4584.480 85.736 93.591
4847.120 84.383 -41.108
5124.810 83.166 159.732
5418.400 81.694 -18.826
5728.810 81.733 131.220
6057.010 83.434 -116.162
6404.000 84.336 -47.363
6770.880 84.655 -20.346
7158.770 84.664 -31.645
7568.890 83.664 -85.132
8002.500 82.880 179.125
8460.950 80.637 41.421
8945.670 78.419 -138.439
9458.160 78.664 -4.099
10000.000 78.620 62.072
