# Freq(Hz) SPL(dB) Phase (degrees)
10.000 -0.907 160.708
10.570 0.056 159.609
11.180 1.030 158.432
11.820 1.997 157.198
12.500 2.969 155.887
13.210 3.929 154.518
13.970 4.901 153.052
14.770 5.868 151.510
15.620 6.840 149.871
16.510 7.803 148.155
17.460 8.775 146.324
18.460 9.742 144.396
19.510 10.703 142.373
20.630 11.673 140.214
21.810 12.639 137.940
23.060 13.608 135.532
24.380 14.575 132.989
25.780 15.545 130.293
27.260 16.515 127.443
28.820 17.482 124.439
30.470 18.450 121.263
32.220 19.420 117.895
34.060 20.386 114.355
36.010 21.353 110.605
38.080 22.325 106.625
40.260 23.293 102.435
42.560 24.260 98.016
45.000 25.230 93.330
47.580 26.200 88.378
50.310 27.172 83.141
53.190 28.142 77.618
56.230 29.111 71.793
59.460 30.086 65.607
62.860 31.058 59.100
66.460 32.032 52.214
70.270 33.009 44.933
74.300 33.988 37.236
78.550 34.967 29.126
83.050 35.951 20.544
87.810 36.938 11.472
92.840 37.929 1.891
98.160 38.925 -8.237
103.780 39.926 -18.934
109.730 40.935 -30.257
116.020 41.953 -42.230
122.660 42.978 -54.877
129.690 44.016 -68.280
137.120 45.065 -82.467
144.970 46.127 -97.487
153.280 47.206 -113.432
162.060 48.300 -130.336
171.340 49.410 -148.278
181.160 50.539 -167.357
191.540 51.683 172.365
202.510 52.843 150.805
214.110 54.015 127.861
226.380 55.198 103.434
239.350 56.387 77.451
253.060 57.575 49.823
267.560 58.760 20.456
282.890 59.935 -10.717
299.090 61.094 -43.743
316.230 62.235 -78.720
334.340 63.357 -115.649
353.500 64.465 -154.624
373.750 65.565 164.339
395.160 66.675 121.144
417.800 67.815 75.646
441.730 69.009 27.639
467.040 70.278 -23.247
493.800 71.627 -77.441
522.090 73.031 -135.413
552.000 74.441 162.447
583.620 75.795 95.957
617.050 77.038 25.134
652.400 78.140 -49.874
689.780 79.104 -128.883
729.290 79.965 148.242
771.080 80.782 61.334
815.250 81.614 -29.977
861.950 82.477 -126.395
911.330 83.335 131.492
963.540 84.138 23.471
1018.740 84.894 -90.540
1077.110 85.638 148.999
1138.810 86.346 21.366
1204.050 86.936 -113.816
1273.030 87.377 103.549
1345.960 87.708 -46.679
1423.070 87.968 154.989
1504.590 88.149 -12.250
1590.790 88.152 170.923
1681.920 87.889 -15.060
1778.280 87.454 150.201
1880.150 86.980 -53.821
1987.870 86.565 91.961
2101.750 86.253 -133.725
2222.150 86.019 -11.981
2349.460 85.810 96.071
2484.060 85.612 -170.396
2626.360 85.243 -92.338
2776.820 84.621 -28.911
2935.900 84.049 21.372
3104.100 84.116 54.306
3281.930 84.385 66.515
3469.940 84.672 56.236
3668.730 84.555 24.676
3878.910 84.532 -26.293
4101.130 84.976 -102.587
4336.070 85.295 152.456
4584.480 84.868 20.186
4847.120 84.010 -134.393
5124.810 83.803 43.832
5418.400 83.913 -171.285
5728.810 83.451 -58.418
6057.010 83.836 23.051
6404.000 84.385 61.879
6770.880 84.477 61.966
7158.770 85.027 20.090
7568.890 85.256 -68.452
8002.500 85.057 161.342
8460.950 85.203 -19.893
8945.670 85.138 109.411
9458.160 85.312 -176.467
10000.000 85.204 -162.684
