# Freq(Hz) SPL(dB) Phase (degrees)
10.000 -3.348 154.702
10.570 -2.385 153.260
11.180 -1.410 151.717
11.820 -0.443 150.098
12.500 0.529 148.378
13.210 1.489 146.582
13.970 2.461 144.659
14.770 3.429 142.636
15.620 4.401 140.486
16.510 5.364 138.234
17.460 6.336 135.831
18.460 7.304 133.301
19.510 8.265 130.645
20.630 9.235 127.812
21.810 10.202 124.827
23.060 11.171 121.665
24.380 12.139 118.326
25.780 13.109 114.784
27.260 14.080 111.040
28.820 15.047 107.093
30.470 16.016 102.919
32.220 16.987 98.492
34.060 17.953 93.837
36.010 18.921 88.904
38.080 19.894 83.667
40.260 20.863 78.152
42.560 21.830 72.333
45.000 22.801 66.159
47.580 23.772 59.631
50.310 24.744 52.724
53.190 25.714 45.437
56.230 26.683 37.744
59.460 27.657 29.571
62.860 28.628 20.967
66.460 29.600 11.856
70.270 30.574 2.213
74.300 31.549 -7.987
78.550 32.523 -18.746
83.050 33.499 -30.138
87.810 34.476 -42.191
92.840 35.454 -54.929
98.160 36.433 -68.404
103.780 37.413 -82.642
109.730 38.396 -97.719
116.020 39.380 -113.663
122.660 40.365 -130.500
129.690 41.354 -148.332
137.120 42.344 -167.188
144.970 43.336 172.880
153.280 44.332 151.768
162.060 45.330 129.448
171.340 46.331 105.838
181.160 47.335 80.835
191.540 48.342 54.382
202.510 49.351 26.399
214.110 50.363 -3.220
226.380 51.377 -34.582
239.350 52.392 -67.767
253.060 53.408 -102.881
267.560 54.424 -140.052
282.890 55.440 -179.385
299.090 56.454 139.020
316.230 57.468 94.983
334.340 58.481 48.426
353.500 59.495 -0.859
373.750 60.510 -52.984
395.160 61.529 -108.151
417.800 62.553 -166.571
441.730 63.579 131.556
467.040 64.606 65.938
493.800 65.623 -3.665
522.090 66.615 -77.504
552.000 67.566 -155.816
583.620 68.455 121.213
617.050 69.268 33.411
652.400 69.997 -59.414
689.780 70.636 -157.458
729.290 71.181 99.094
771.080 71.625 -10.081
815.250 71.960 -125.168
861.950 72.172 113.548
911.330 72.249 -14.145
963.540 72.185 -148.456
1018.740 71.975 70.485
1077.110 71.613 -77.471
1138.810 71.116 127.922
1204.050 70.588 -33.265
1273.030 70.234 158.736
1345.960 70.271 -17.658
1423.070 70.723 155.268
1504.590 71.446 -44.695
1590.790 72.225 102.011
1681.920 72.971 -125.067
1778.280 73.632 -6.489
1880.150 74.138 97.082
1987.870 74.404 -174.555
2101.750 74.420 -101.481
2222.150 74.250 -44.535
2349.460 73.859 -4.415
2484.060 73.256 17.935
2626.360 72.398 21.999
2776.820 71.307 6.415
2935.900 69.745 -28.939
3104.100 67.453 -83.138
3281.930 65.415 -150.473
3469.940 65.200 124.390
3668.730 67.011 1.435
3878.910 68.077 -161.167
4101.130 68.273 -0.388
4336.070 67.652 127.691
4584.480 65.706 -138.893
4847.120 61.155 -94.949
5124.810 51.068 -105.055
5418.400 53.729 112.810
5728.810 61.311 25.566
6057.010 61.466 -95.676
6404.000 58.966 85.408
6770.880 55.095 171.491
7158.770 57.868 -138.165
7568.890 58.200 -96.844
8002.500 59.292 148.733
8460.950 47.861 120.813
8945.670 55.770 139.813
9458.160 57.544 -50.164
10000.000 39.379 5.755
