# Freq(Hz) SPL(dB) Phase (degrees)
10.000 -3.319 154.784
10.570 -2.356 153.346
11.180 -1.381 151.808
11.820 -0.414 150.195
12.500 0.558 148.480
13.210 1.518 146.690
13.970 2.490 144.774
14.770 3.457 142.757
15.620 4.430 140.613
16.510 5.392 138.369
17.460 6.365 135.974
18.460 7.332 133.452
19.510 8.294 130.805
20.630 9.264 127.981
21.810 10.231 125.005
23.060 11.199 121.853
24.380 12.167 118.525
25.780 13.137 114.995
27.260 14.108 111.263
28.820 15.075 107.329
30.470 16.043 103.169
32.220 17.015 98.756
34.060 17.980 94.116
36.010 18.949 89.199
38.080 19.921 83.979
40.260 20.890 78.481
42.560 21.857 72.681
45.000 22.827 66.528
47.580 23.798 60.021
50.310 24.770 53.136
53.190 25.740 45.872
56.230 26.708 38.205
59.460 27.682 30.058
62.860 28.652 21.482
66.460 29.624 12.401
70.270 30.597 2.789
74.300 31.572 -7.378
78.550 32.545 -18.102
83.050 33.520 -29.457
87.810 34.496 -41.470
92.840 35.473 -54.167
98.160 36.451 -67.598
103.780 37.430 -81.789
109.730 38.411 -96.817
116.020 39.394 -112.709
122.660 40.377 -129.491
129.690 41.364 -147.265
137.120 42.352 -166.059
144.970 43.341 174.074
153.280 44.335 153.031
162.060 45.329 130.783
171.340 46.327 107.251
181.160 47.327 82.329
191.540 48.329 55.962
202.510 49.334 28.070
214.110 50.340 -1.453
226.380 51.347 -32.713
239.350 52.355 -65.790
253.060 53.362 -100.790
267.560 54.369 -137.839
282.890 55.374 -177.042
299.090 56.376 141.501
316.230 57.375 97.612
334.340 58.372 51.215
353.500 59.368 2.102
373.750 60.363 -49.840
395.160 61.359 -104.809
417.800 62.356 -163.017
441.730 63.352 135.334
467.040 64.342 69.957
493.800 65.316 0.615
522.090 66.256 -72.932
552.000 67.142 -150.902
583.620 67.953 126.548
617.050 68.676 39.281
652.400 69.302 -52.856
689.780 69.831 -150.031
729.290 70.259 107.603
771.080 70.583 -0.243
815.250 70.796 -113.689
861.950 70.892 127.089
911.330 70.879 2.033
963.540 70.795 -128.922
1018.740 70.716 94.086
1077.110 70.737 -49.550
1138.810 70.926 159.335
1204.050 71.299 -0.455
1273.030 71.856 -169.829
1345.960 72.564 9.970
1423.070 73.323 177.984
1504.590 74.003 -26.636
1590.790 74.482 116.106
1681.920 74.733 -113.756
1778.280 74.788 3.398
1880.150 74.651 106.651
1987.870 74.229 -164.594
2101.750 73.417 -90.361
2222.150 72.241 -30.115
2349.460 70.824 16.010
2484.060 69.183 47.950
2626.360 67.741 68.504
2776.820 67.705 72.895
2935.900 69.007 51.004
3104.100 70.538 -0.695
3281.930 71.766 -84.441
3469.940 72.032 162.560
3668.730 71.241 20.616
3878.910 68.905 -149.243
4101.130 64.504 17.747
4336.070 57.302 176.873
4584.480 59.910 -20.895
4847.120 62.790 58.008
5124.810 63.773 83.884
5418.400 61.357 57.580
5728.810 54.478 -2.494
6057.010 50.917 24.974
6404.000 60.085 -115.050
6770.880 58.512 23.670
7158.770 50.339 108.227
7568.890 50.665 47.625
8002.500 37.641 74.234
8460.950 48.813 -71.159
8945.670 53.103 4.654
9458.160 49.746 96.357
10000.000 52.112 113.619
