# Freq(Hz) SPL(dB) Phase (degrees)
10.000 -0.731 161.080
10.570 0.232 160.002
11.180 1.207 158.849
11.820 2.174 157.638
12.500 3.145 156.352
13.210 4.105 155.010
13.970 5.077 153.572
14.770 6.044 152.060
15.620 7.016 150.453
16.510 7.979 148.770
17.460 8.951 146.974
18.460 9.918 145.084
19.510 10.879 143.099
20.630 11.849 140.982
21.810 12.815 138.752
23.060 13.783 136.390
24.380 14.750 133.896
25.780 15.720 131.252
27.260 16.690 128.456
28.820 17.657 125.511
30.470 18.624 122.396
32.220 19.595 119.093
34.060 20.560 115.621
36.010 21.528 111.942
38.080 22.499 108.038
40.260 23.467 103.928
42.560 24.433 99.594
45.000 25.403 94.997
47.580 26.373 90.139
50.310 27.344 85.001
53.190 28.314 79.583
56.230 29.282 73.867
59.460 30.257 67.797
62.860 31.228 61.411
66.460 32.201 54.653
70.270 33.177 47.504
74.300 34.156 39.948
78.550 35.134 31.982
83.050 36.116 23.552
87.810 37.102 14.638
92.840 38.091 5.220
98.160 39.085 -4.741
103.780 40.083 -15.264
109.730 41.089 -26.411
116.020 42.103 -38.204
122.660 43.122 -50.668
129.690 44.152 -63.886
137.120 45.192 -77.886
144.970 46.242 -92.719
153.280 47.305 -108.473
162.060 48.378 -125.185
171.340 49.462 -142.928
181.160 50.557 -161.798
191.540 51.661 178.149
202.510 52.770 156.837
214.110 53.883 134.175
226.380 54.994 110.076
239.350 56.100 84.478
253.060 57.195 57.311
267.560 58.275 28.492
282.890 59.333 -2.027
299.090 60.367 -34.283
316.230 61.376 -68.362
334.340 62.360 -104.261
353.500 63.325 -142.073
373.750 64.281 178.174
395.160 65.243 136.367
417.800 66.230 92.342
441.730 67.257 45.884
467.040 68.335 -3.348
493.800 69.457 -55.695
522.090 70.598 -111.478
552.000 71.721 -170.929
583.620 72.790 125.875
617.050 73.782 58.968
652.400 74.706 -11.590
689.780 75.598 -85.853
729.290 76.508 -164.162
771.080 77.440 112.748
815.250 78.320 24.389
861.950 79.056 -69.184
911.330 79.654 -167.409
963.540 80.270 89.817
1018.740 81.054 -18.975
1077.110 81.851 -135.874
1138.810 82.301 99.064
1204.050 82.278 -32.134
1273.030 82.001 -168.330
1345.960 81.672 49.809
1423.070 81.367 -98.197
1504.590 81.360 106.318
1590.790 81.410 -60.785
1681.920 80.728 122.162
1778.280 79.645 -58.576
1880.150 79.325 114.368
1987.870 79.428 -85.942
2101.750 79.327 61.589
2222.150 79.218 -158.520
2349.460 80.585 -30.941
2484.060 82.008 72.591
2626.360 82.528 162.112
2776.820 83.417 -121.933
2935.900 84.385 -67.018
3104.100 84.609 -28.622
3281.930 85.427 -8.049
3469.940 85.505 -13.051
3668.730 84.819 -32.063
3878.910 84.564 -74.630
4101.130 83.488 -136.004
4336.070 82.864 135.742
4584.480 80.878 28.499
4847.120 79.115 -103.819
5124.810 78.028 113.149
5418.400 79.221 -62.182
5728.810 81.912 71.092
6057.010 83.398 164.367
6404.000 83.277 -139.490
6770.880 81.969 -120.921
7158.770 80.604 -135.158
7568.890 79.186 168.978
8002.500 77.369 75.100
8460.950 75.026 -57.859
8945.670 75.228 127.131
9458.160 75.928 -126.650
10000.000 75.428 -74.514
