# Freq(Hz) SPL(dB) Phase (degrees)
10.000 -0.493 161.568
10.570 0.470 160.517
11.180 1.445 159.393
11.820 2.412 158.214
12.500 3.384 156.962
13.210 4.344 155.653
13.970 5.316 154.253
14.770 6.284 152.780
15.620 7.256 151.214
16.510 8.219 149.575
17.460 9.191 147.825
18.460 10.159 145.983
19.510 11.121 144.050
20.630 12.091 141.988
21.810 13.058 139.815
23.060 14.027 137.514
24.380 14.995 135.085
25.780 15.966 132.508
27.260 16.936 129.785
28.820 17.904 126.915
30.470 18.873 123.881
32.220 19.845 120.663
34.060 20.811 117.280
36.010 21.781 113.697
38.080 22.754 109.894
40.260 23.725 105.890
42.560 24.693 101.667
45.000 25.666 97.189
47.580 26.639 92.456
50.310 27.614 87.450
53.190 28.587 82.171
56.230 29.561 76.602
59.460 30.540 70.687
62.860 31.517 64.464
66.460 32.497 57.878
70.270 33.481 50.911
74.300 34.467 43.545
78.550 35.455 35.779
83.050 36.448 27.557
87.810 37.446 18.862
92.840 38.448 9.672
98.160 39.457 -0.051
103.780 40.473 -10.329
109.730 41.498 -21.221
116.020 42.532 -32.753
122.660 43.575 -44.950
129.690 44.631 -57.897
137.120 45.700 -71.623
144.970 46.780 -86.180
153.280 47.876 -101.661
162.060 48.985 -118.101
171.340 50.106 -135.578
181.160 51.240 -154.187
191.540 52.384 -173.988
202.510 53.535 164.944
214.110 54.689 142.519
226.380 55.842 118.651
239.350 56.989 93.280
253.060 58.123 66.340
267.560 59.240 37.753
282.890 60.335 7.476
299.090 61.402 -24.519
316.230 62.444 -58.309
334.340 63.460 -93.884
353.500 64.459 -131.335
373.750 65.452 -170.691
395.160 66.456 147.925
417.800 67.490 104.331
441.730 68.566 58.298
467.040 69.689 9.485
493.800 70.847 -42.408
522.090 72.013 -97.623
552.000 73.157 -156.270
583.620 74.268 141.680
617.050 75.371 76.224
652.400 76.513 7.081
689.780 77.721 -66.361
729.290 78.953 -144.754
771.080 80.127 131.472
815.250 81.169 42.385
861.950 82.051 -51.890
911.330 82.772 -151.313
963.540 83.334 104.113
1018.740 83.744 -5.439
1077.110 84.112 -119.734
1138.810 84.631 120.363
1204.050 85.298 -7.231
1273.030 85.862 -143.498
1345.960 86.182 72.057
1423.070 86.238 -80.391
1504.590 85.949 119.520
1590.790 85.424 -46.957
1681.920 85.040 139.641
1778.280 84.843 -43.569
1880.150 84.620 121.853
1987.870 83.963 -84.041
2101.750 82.862 62.885
2222.150 82.188 -156.338
2349.460 82.608 -28.111
2484.060 83.244 80.793
2626.360 83.472 176.288
2776.820 84.225 -102.040
2935.900 85.419 -40.835
3104.100 86.133 -0.048
3281.930 86.557 24.005
3469.940 87.284 28.086
3668.730 87.512 8.846
3878.910 87.249 -27.510
4101.130 87.561 -87.392
4336.070 87.293 -170.476
4584.480 87.665 81.275
4847.120 87.464 -56.648
5124.810 87.287 138.093
5418.400 86.508 -58.924
5728.810 85.372 75.258
6057.010 83.279 -179.206
6404.000 81.843 -101.897
6770.880 81.721 -52.630
7158.770 82.671 -53.582
7568.890 83.782 -102.431
8002.500 84.403 162.758
8460.950 84.452 16.696
8945.670 83.578 -176.745
9458.160 82.260 -59.023
10000.000 80.580 10.079
