# Freq(Hz) SPL(dB) Phase (degrees)
10.000 -3.159 155.234
10.570 -2.196 153.822
11.180 -1.221 152.312
11.820 -0.254 150.727
12.500 0.718 149.043
13.210 1.677 147.285
13.970 2.649 145.403
14.770 3.616 143.422
15.620 4.588 141.317
16.510 5.551 139.113
17.460 6.522 136.761
18.460 7.490 134.284
19.510 8.451 131.684
20.630 9.420 128.911
21.810 10.386 125.989
23.060 11.354 122.893
24.380 12.321 119.624
25.780 13.290 116.158
27.260 14.260 112.493
28.820 15.226 108.630
30.470 16.193 104.544
32.220 17.163 100.210
34.060 18.127 95.654
36.010 19.094 90.826
38.080 20.064 85.700
40.260 21.030 80.302
42.560 21.995 74.607
45.000 22.962 68.565
47.580 23.930 62.176
50.310 24.898 55.417
53.190 25.864 48.286
56.230 26.829 40.759
59.460 27.797 32.761
62.860 28.762 24.343
66.460 29.728 15.429
70.270 30.695 5.996
74.300 31.661 -3.982
78.550 32.626 -14.505
83.050 33.591 -25.647
87.810 34.557 -37.432
92.840 35.522 -49.887
98.160 36.487 -63.059
103.780 37.451 -76.976
109.730 38.415 -91.710
116.020 39.380 -107.287
122.660 40.342 -123.732
129.690 41.305 -141.145
137.120 42.268 -159.551
144.970 43.229 -179.000
153.280 44.190 160.407
162.060 45.149 138.646
171.340 46.106 115.641
181.160 47.063 91.293
191.540 48.016 65.552
202.510 48.966 38.344
214.110 49.913 9.570
226.380 50.856 -20.867
239.350 51.793 -53.037
253.060 52.724 -87.036
267.560 53.649 -122.979
282.890 54.566 -160.959
299.090 55.476 158.937
316.230 56.378 116.544
334.340 57.274 71.798
353.500 58.165 24.509
373.750 59.051 -25.419
395.160 59.935 -78.160
417.800 60.817 -133.895
441.730 61.696 167.221
467.040 62.571 104.965
493.800 63.440 39.182
522.090 64.300 -30.288
552.000 65.159 -103.614
583.620 66.028 179.012
617.050 66.928 97.297
652.400 67.872 10.817
689.780 68.853 -80.897
729.290 69.845 -178.212
771.080 70.825 78.525
815.250 71.783 -30.869
861.950 72.719 -146.779
911.330 73.624 90.364
963.540 74.482 -39.855
1018.740 75.275 -177.904
1077.110 75.957 35.646
1138.810 76.446 -119.463
1204.050 76.693 77.099
1273.030 76.756 -94.699
1345.960 76.704 84.763
1423.070 76.552 -105.233
1504.590 76.306 54.908
1590.790 75.955 -155.218
1681.920 75.581 -15.983
1778.280 75.249 111.579
1880.150 74.980 -133.301
1987.870 74.814 -32.019
2101.750 74.686 54.263
2222.150 74.543 124.767
2349.460 74.395 178.425
2484.060 74.158 -145.824
2626.360 73.743 -128.996
2776.820 72.890 -130.952
2935.900 71.780 -149.159
3104.100 71.445 176.749
3281.930 71.977 117.127
3469.940 73.012 24.706
3668.730 73.093 -99.796
3878.910 71.989 109.292
4101.130 69.850 -63.781
4336.070 68.547 97.190
4584.480 67.441 -132.391
4847.120 66.514 -39.823
5124.810 64.310 13.039
5418.400 60.035 48.790
5728.810 61.980 55.671
6057.010 63.423 -24.246
6404.000 62.311 -153.899
6770.880 57.900 70.177
7158.770 57.332 -129.904
7568.890 53.357 78.025
8002.500 54.527 55.751
8460.950 58.287 16.940
8945.670 52.484 -29.489
9458.160 50.409 110.691
10000.000 45.793 -47.467
