# Freq(Hz) SPL(dB) Phase (degrees)
10.000 -3.361 154.664
10.570 -2.398 153.221
11.180 -1.423 151.675
11.820 -0.456 150.054
12.500 0.516 148.331
13.210 1.476 146.533
13.970 2.447 144.607
14.770 3.415 142.581
15.620 4.387 140.427
16.510 5.350 138.173
17.460 6.322 135.766
18.460 7.290 133.233
19.510 8.251 130.573
20.630 9.221 127.735
21.810 10.188 124.746
23.060 11.157 121.579
24.380 12.124 118.235
25.780 13.095 114.688
27.260 14.065 110.939
28.820 15.033 106.987
30.470 16.001 102.806
32.220 16.972 98.373
34.060 17.938 93.711
36.010 18.906 88.771
38.080 19.878 83.526
40.260 20.847 78.003
42.560 21.814 72.176
45.000 22.784 65.993
47.580 23.754 59.456
50.310 24.726 52.539
53.190 25.696 45.242
56.230 26.664 37.538
59.460 27.638 29.354
62.860 28.607 20.738
66.460 29.579 11.614
70.270 30.552 1.958
74.300 31.526 -8.256
78.550 32.499 -19.029
83.050 33.473 -30.436
87.810 34.449 -42.504
92.840 35.425 -55.258
98.160 36.403 -68.749
103.780 37.381 -83.004
109.730 38.361 -98.099
116.020 39.343 -114.060
122.660 40.325 -130.915
129.690 41.310 -148.765
137.120 42.297 -167.638
144.970 43.285 172.414
153.280 44.276 151.286
162.060 45.269 128.951
171.340 46.264 105.330
181.160 47.262 80.317
191.540 48.263 53.859
202.510 49.264 25.876
214.110 50.268 -3.738
226.380 51.274 -35.087
239.350 52.280 -68.251
253.060 53.286 -103.334
267.560 54.293 -140.463
282.890 55.300 -179.740
299.090 56.305 138.733
316.230 57.310 94.779
334.340 58.315 48.322
353.500 59.321 -0.846
373.750 60.330 -52.834
395.160 61.343 -107.838
417.800 62.361 -166.062
441.730 63.384 132.303
467.040 64.410 66.980
493.800 65.432 -2.255
522.090 66.440 -75.642
552.000 67.422 -153.421
583.620 68.365 124.203
617.050 69.260 37.021
652.400 70.100 -55.195
689.780 70.880 -152.676
729.290 71.596 104.370
771.080 72.246 -4.390
815.250 72.829 -119.163
861.950 73.344 119.693
911.330 73.790 -8.205
963.540 74.155 -143.280
1018.740 74.414 74.135
1077.110 74.539 -76.238
1138.810 74.546 125.620
1204.050 74.441 -40.632
1273.030 74.326 144.415
1345.960 74.175 -40.067
1423.070 73.957 125.435
1504.590 73.688 -79.462
1590.790 73.411 64.787
1681.920 73.155 -163.044
1778.280 72.880 -44.000
1880.150 72.518 61.629
1987.870 72.117 152.980
2101.750 71.583 -130.694
2222.150 70.949 -69.868
2349.460 70.361 -24.865
2484.060 69.757 1.776
2626.360 69.062 10.028
2776.820 68.475 -1.642
2935.900 67.827 -36.124
3104.100 66.800 -93.115
3281.930 65.637 -175.485
3469.940 63.613 77.762
3668.730 60.215 -54.539
3878.910 56.007 151.947
4101.130 50.294 14.665
4336.070 56.167 -158.858
4584.480 60.023 -34.798
4847.120 62.422 38.179
5124.810 64.958 70.910
5418.400 66.016 62.747
5728.810 66.425 12.326
6057.010 67.047 -83.745
6404.000 65.578 135.961
6770.880 63.958 -52.128
7158.770 63.299 66.373
7568.890 62.189 124.952
8002.500 61.430 141.126
8460.950 57.472 69.292
8945.670 55.230 -10.679
9458.160 55.446 -151.517
10000.000 50.374 -48.300
