# Freq(Hz) SPL(dB) Phase (degrees)
10.000 -2.087 158.021
10.570 -1.125 156.769
11.180 -0.150 155.429
11.820 0.816 154.022
12.500 1.788 152.528
13.210 2.747 150.968
13.970 3.718 149.298
14.770 4.685 147.541
15.620 5.656 145.673
16.510 6.618 143.718
17.460 7.589 141.631
18.460 8.556 139.434
19.510 9.516 137.128
20.630 10.485 134.668
21.810 11.450 132.076
23.060 12.416 129.331
24.380 13.382 126.432
25.780 14.350 123.358
27.260 15.318 120.109
28.820 16.283 116.684
30.470 17.247 113.062
32.220 18.215 109.221
34.060 19.177 105.183
36.010 20.141 100.905
38.080 21.108 96.364
40.260 22.071 91.583
42.560 23.032 86.541
45.000 23.996 81.192
47.580 24.959 75.539
50.310 25.922 69.558
53.190 26.883 63.252
56.230 27.841 56.597
59.460 28.804 49.530
62.860 29.761 42.095
66.460 30.720 34.227
70.270 31.678 25.904
74.300 32.636 17.107
78.550 33.590 7.837
83.050 34.545 -1.972
87.810 35.500 -12.338
92.840 36.453 -23.282
98.160 37.406 -34.846
103.780 38.358 -47.049
109.730 39.310 -59.954
116.020 40.262 -73.579
122.660 41.213 -87.945
129.690 42.166 -103.135
137.120 43.120 -119.167
144.970 44.075 -136.082
153.280 45.035 -153.965
162.060 45.998 -172.835
171.340 46.967 167.243
181.160 47.944 146.183
191.540 48.931 123.939
202.510 49.928 100.439
214.110 50.940 75.588
226.380 51.968 49.285
239.350 53.014 21.446
253.060 54.080 -8.041
267.560 55.168 -39.313
282.890 56.275 -72.491
299.090 57.401 -107.697
316.230 58.543 -145.115
334.340 59.695 175.162
353.500 60.852 132.944
373.750 62.005 88.140
395.160 63.147 40.615
417.800 64.271 -9.748
441.730 65.373 -63.016
467.040 66.453 -119.308
493.800 67.521 -178.696
522.090 68.590 118.696
552.000 69.683 52.657
583.620 70.818 -17.108
617.050 72.004 -90.969
652.400 73.241 -169.326
689.780 74.524 107.423
729.290 75.841 18.872
771.080 77.161 -75.511
815.250 78.434 -176.047
861.950 79.599 77.034
911.330 80.612 -36.287
963.540 81.463 -155.958
1018.740 82.167 77.973
1077.110 82.742 -54.677
1138.810 83.226 165.977
1204.050 83.674 19.506
1273.030 84.144 -134.990
1345.960 84.581 61.565
1423.070 84.903 -111.266
1504.590 85.061 66.479
1590.790 85.057 -125.170
1681.920 85.010 33.789
1778.280 85.043 -177.963
1880.150 85.095 -41.708
1987.870 85.093 81.868
2101.750 85.017 -167.465
2222.150 84.888 -70.060
2349.460 84.848 13.285
2484.060 84.946 80.664
2626.360 84.994 130.707
2776.820 84.988 163.917
2935.900 85.178 178.444
3104.100 85.344 171.774
3281.930 85.505 143.360
3469.940 85.373 91.504
3668.730 84.821 17.096
3878.910 84.155 -80.580
4101.130 83.167 156.622
4336.070 82.243 9.441
4584.480 81.417 -165.934
4847.120 80.642 -11.132
5124.810 79.833 112.204
5418.400 79.121 -155.291
5728.810 79.295 -99.457
6057.010 79.533 -85.833
6404.000 79.657 -115.143
6770.880 79.343 172.380
7158.770 78.982 55.047
7568.890 78.530 -107.063
8002.500 78.131 33.328
8460.950 78.142 123.165
8945.670 77.021 152.732
9458.160 75.775 120.552
10000.000 74.103 30.447
