# Freq(Hz) SPL(dB) Phase (degrees)
10.000 -2.476 157.051
10.570 -1.513 155.743
11.180 -0.538 154.343
11.820 0.428 152.875
12.500 1.400 151.315
13.210 2.359 149.686
13.970 3.330 147.942
14.770 4.297 146.106
15.620 5.269 144.156
16.510 6.231 142.114
17.460 7.202 139.935
18.460 8.169 137.640
19.510 9.129 135.231
20.630 10.098 132.662
21.810 11.063 129.955
23.060 12.031 127.087
24.380 12.996 124.059
25.780 13.965 120.848
27.260 14.933 117.453
28.820 15.898 113.875
30.470 16.864 110.091
32.220 17.832 106.078
34.060 18.794 101.858
36.010 19.759 97.387
38.080 20.727 92.641
40.260 21.691 87.643
42.560 22.653 82.370
45.000 23.618 76.778
47.580 24.582 70.865
50.310 25.546 64.609
53.190 26.508 58.011
56.230 27.468 51.047
59.460 28.432 43.649
62.860 29.391 35.864
66.460 30.351 27.622
70.270 31.311 18.902
74.300 32.271 9.680
78.550 33.227 -0.042
83.050 34.184 -10.334
87.810 35.140 -21.216
92.840 36.095 -32.712
98.160 37.049 -44.867
103.780 38.001 -57.703
109.730 38.953 -71.289
116.020 39.904 -85.645
122.660 40.852 -100.795
129.690 41.800 -116.829
137.120 42.747 -133.770
144.970 43.691 -151.664
153.280 44.636 -170.601
162.060 45.578 169.396
171.340 46.518 148.258
181.160 47.457 125.894
191.540 48.394 102.258
202.510 49.329 77.282
214.110 50.260 50.875
226.380 51.189 22.948
239.350 52.114 -6.565
253.060 53.034 -37.752
267.560 53.951 -70.722
282.890 54.864 -105.562
299.090 55.772 -142.360
316.230 56.680 178.724
334.340 57.585 137.614
353.500 58.489 94.115
373.750 59.392 48.115
395.160 60.288 -0.567
417.800 61.173 -52.100
441.730 62.037 -106.605
467.040 62.874 -164.233
493.800 63.682 134.947
522.090 64.470 70.846
552.000 65.259 3.281
583.620 66.069 -68.067
617.050 66.896 -143.629
652.400 67.708 136.229
689.780 68.466 51.387
729.290 69.165 -38.042
771.080 69.857 -132.125
815.250 70.628 128.729
861.950 71.517 23.428
911.330 72.444 -89.202
963.540 73.257 150.229
1018.740 73.785 21.747
1077.110 73.892 -114.053
1138.810 73.511 104.362
1204.050 72.967 -40.825
1273.030 72.873 169.104
1345.960 73.428 8.474
1423.070 73.938 -166.399
1504.590 73.671 5.962
1590.790 72.169 169.894
1681.920 69.870 -25.951
1778.280 69.211 138.956
1880.150 70.420 -77.288
1987.870 70.590 45.324
2101.750 69.558 163.187
2222.150 70.855 -83.696
2349.460 73.358 -1.673
2484.060 74.439 57.239
2626.360 74.850 104.086
2776.820 75.901 132.678
2935.900 76.576 136.955
3104.100 76.525 122.125
3281.930 76.626 86.173
3469.940 75.828 24.594
3668.730 74.548 -55.900
3878.910 72.720 -166.160
4101.130 69.265 70.646
4336.070 66.650 -71.802
4584.480 63.566 128.982
4847.120 65.377 -63.968
5124.810 66.985 56.433
5418.400 67.133 132.293
5728.810 66.325 172.118
6057.010 63.719 -179.532
6404.000 59.571 161.920
6770.880 61.927 100.802
7158.770 64.815 -7.041
7568.890 64.234 161.850
8002.500 63.109 -63.145
8460.950 60.016 6.363
8945.670 60.609 57.279
9458.160 45.185 72.241
10000.000 55.360 -52.182
