# Freq(Hz) SPL(dB) Phase (degrees)
10.000 -1.587 159.207
10.570 -0.624 158.022
11.180 0.350 156.754
11.820 1.317 155.424
12.500 2.289 154.010
13.210 3.248 152.534
13.970 4.219 150.955
14.770 5.186 149.292
15.620 6.158 147.526
16.510 7.120 145.676
17.460 8.091 143.702
18.460 9.058 141.624
19.510 10.019 139.443
20.630 10.988 137.116
21.810 11.953 134.665
23.060 12.920 132.068
24.380 13.886 129.327
25.780 14.855 126.420
27.260 15.823 123.347
28.820 16.789 120.108
30.470 17.754 116.684
32.220 18.723 113.052
34.060 19.686 109.235
36.010 20.651 105.191
38.080 21.619 100.898
40.260 22.584 96.379
42.560 23.546 91.614
45.000 24.512 86.559
47.580 25.477 81.218
50.310 26.443 75.568
53.190 27.406 69.611
56.230 28.368 63.326
59.460 29.334 56.653
62.860 30.296 49.633
66.460 31.259 42.205
70.270 32.223 34.351
74.300 33.188 26.050
78.550 34.150 17.304
83.050 35.115 8.052
87.810 36.080 -1.724
92.840 37.046 -12.044
98.160 38.014 -22.946
103.780 38.983 -34.450
109.730 39.956 -46.617
116.020 40.932 -59.464
122.660 41.911 -73.012
129.690 42.897 -87.343
137.120 43.889 -102.478
144.970 44.889 -118.460
153.280 45.900 -135.375
162.060 46.921 -153.251
171.340 47.956 -172.158
181.160 49.007 167.810
191.540 50.074 146.595
202.510 51.159 124.115
214.110 52.264 100.265
226.380 53.388 74.934
239.350 54.530 48.033
253.060 55.688 19.450
267.560 56.859 -10.943
282.890 58.038 -43.248
299.090 59.219 -77.558
316.230 60.398 -114.018
334.340 61.567 -152.670
353.500 62.722 166.351
373.750 63.859 123.018
395.160 64.978 77.254
417.800 66.085 28.996
441.730 67.195 -21.803
467.040 68.331 -75.291
493.800 69.526 -131.666
522.090 70.812 168.706
552.000 72.202 105.297
583.620 73.676 37.540
617.050 75.187 -35.040
652.400 76.673 -112.749
689.780 78.081 164.289
729.290 79.366 76.103
771.080 80.509 -17.314
815.250 81.508 -115.834
861.950 82.390 140.519
911.330 83.201 31.586
963.540 84.001 -83.063
1018.740 84.820 155.798
1077.110 85.612 27.216
1138.810 86.256 -109.232
1204.050 86.667 106.756
1273.030 86.879 -44.548
1345.960 86.974 156.695
1423.070 87.020 -10.167
1504.590 87.025 173.860
1590.790 86.879 -11.847
1681.920 86.550 153.174
1778.280 86.205 -51.341
1880.150 85.922 93.073
1987.870 85.548 -134.936
2101.750 84.941 -14.655
2222.150 84.326 94.373
2349.460 83.921 -169.914
2484.060 83.559 -89.037
2626.360 83.244 -22.718
2776.820 83.244 28.026
2935.900 83.702 60.258
3104.100 84.366 70.355
3281.930 84.824 58.951
3469.940 85.275 24.699
3668.730 85.221 -33.421
3878.910 84.962 -113.458
4101.130 84.416 143.599
4336.070 84.127 16.309
4584.480 83.925 -138.417
4847.120 84.176 36.406
5124.810 84.290 178.207
5418.400 84.310 -74.757
5728.810 84.009 -1.198
6057.010 83.733 35.209
6404.000 83.245 34.255
6770.880 83.049 -7.791
7158.770 82.818 -94.720
7568.890 82.278 132.112
8002.500 81.823 -49.592
8460.950 80.811 77.475
8945.670 80.079 152.401
9458.160 79.801 170.913
10000.000 79.452 126.852
