# Freq(Hz) SPL(dB) Phase (degrees)
10.000 -3.048 155.537
10.570 -2.085 154.143
11.180 -1.110 152.651
11.820 -0.143 151.086
12.500 0.828 149.423
13.210 1.788 147.686
13.970 2.760 145.827
14.770 3.727 143.870
15.620 4.699 141.791
16.510 5.662 139.614
17.460 6.633 137.290
18.460 7.601 134.844
19.510 8.562 132.276
20.630 9.531 129.537
21.810 10.497 126.650
23.060 11.465 123.593
24.380 12.432 120.364
25.780 13.402 116.940
27.260 14.372 113.320
28.820 15.338 109.504
30.470 16.305 105.468
32.220 17.275 101.188
34.060 18.239 96.687
36.010 19.206 91.918
38.080 20.177 86.855
40.260 21.144 81.523
42.560 22.108 75.897
45.000 23.076 69.929
47.580 24.044 63.619
50.310 25.013 56.942
53.190 25.980 49.898
56.230 26.944 42.463
59.460 27.914 34.563
62.860 28.879 26.247
66.460 29.846 17.442
70.270 30.814 8.123
74.300 31.782 -1.734
78.550 32.747 -12.129
83.050 33.714 -23.137
87.810 34.682 -34.780
92.840 35.648 -47.085
98.160 36.616 -60.101
103.780 37.582 -73.852
109.730 38.550 -88.412
116.020 39.517 -103.807
122.660 40.483 -120.062
129.690 41.451 -137.276
137.120 42.418 -155.474
144.970 43.384 -174.708
153.280 44.351 164.923
162.060 45.317 143.392
171.340 46.282 120.624
181.160 47.247 96.516
191.540 48.209 71.018
202.510 49.169 44.054
214.110 50.125 15.524
226.380 51.078 -14.673
239.350 52.024 -46.609
253.060 52.962 -80.380
267.560 53.892 -116.105
282.890 54.812 -153.875
299.090 55.720 166.221
316.230 56.616 124.021
334.340 57.500 79.461
353.500 58.373 32.350
373.750 59.235 -17.410
395.160 60.085 -70.001
417.800 60.923 -125.615
441.730 61.742 175.581
467.040 62.534 113.362
493.800 63.283 47.596
522.090 63.977 -21.789
552.000 64.615 -94.803
583.620 65.224 -171.432
617.050 65.862 108.159
652.400 66.592 23.453
689.780 67.437 -66.362
729.290 68.358 -162.062
771.080 69.276 95.738
815.250 70.119 -13.156
861.950 70.831 -128.911
911.330 71.375 108.342
963.540 71.712 -21.515
1018.740 71.811 -158.601
1077.110 71.615 57.125
1138.810 71.087 -93.741
1204.050 70.325 109.814
1273.030 69.671 -51.666
1345.960 69.591 139.755
1423.070 70.191 -40.803
1504.590 70.958 123.166
1590.790 71.321 -88.483
1681.920 70.946 45.737
1778.280 69.773 166.924
1880.150 67.593 -84.117
1987.870 64.063 13.072
2101.750 58.215 107.850
2222.150 54.151 -130.328
2349.460 56.987 -53.026
2484.060 55.435 -25.953
2626.360 42.303 -70.304
2776.820 56.179 166.528
2935.900 62.190 129.686
3104.100 63.738 74.579
3281.930 61.942 5.751
3469.940 60.619 -45.973
3668.730 64.731 -143.990
3878.910 65.695 71.184
4101.130 63.234 -86.716
4336.070 65.180 106.382
4584.480 68.421 -122.211
4847.120 67.501 -27.498
5124.810 67.574 54.456
5418.400 68.842 79.594
5728.810 67.399 64.033
6057.010 66.499 12.575
6404.000 66.372 -84.580
6770.880 60.091 137.867
7158.770 57.990 -58.185
7568.890 53.482 24.500
8002.500 37.065 -71.085
8460.950 54.546 13.600
8945.670 57.482 -81.801
9458.160 56.408 150.528
10000.000 50.051 -21.493
