# Freq(Hz) SPL(dB) Phase (degrees)
10.000 -3.281 154.889
10.570 -2.318 153.458
11.180 -1.344 151.927
11.820 -0.376 150.320
12.500 0.595 148.612
13.210 1.555 146.830
13.970 2.527 144.921
14.770 3.495 142.913
15.620 4.467 140.779
16.510 5.430 138.544
17.460 6.402 136.159
18.460 7.370 133.648
19.510 8.331 131.011
20.630 9.301 128.199
21.810 10.268 125.236
23.060 11.236 122.097
24.380 12.204 118.783
25.780 13.174 115.268
27.260 14.144 111.551
28.820 15.112 107.634
30.470 16.080 103.491
32.220 17.051 99.097
34.060 18.016 94.476
36.010 18.984 89.580
38.080 19.957 84.382
40.260 20.925 78.908
42.560 21.892 73.132
45.000 22.862 67.004
47.580 23.832 60.525
50.310 24.803 53.669
53.190 25.773 46.436
56.230 26.741 38.801
59.460 27.714 30.689
62.860 28.683 22.149
66.460 29.655 13.106
70.270 30.627 3.535
74.300 31.601 -6.589
78.550 32.572 -17.267
83.050 33.546 -28.574
87.810 34.521 -40.536
92.840 35.497 -53.178
98.160 36.473 -66.552
103.780 37.450 -80.682
109.730 38.430 -95.646
116.020 39.411 -111.470
122.660 40.391 -128.180
129.690 41.375 -145.877
137.120 42.360 -164.590
144.970 43.346 175.629
153.280 44.335 154.677
162.060 45.326 132.525
171.340 46.318 109.095
181.160 47.313 84.281
191.540 48.310 58.030
202.510 49.307 30.260
214.110 50.305 0.866
226.380 51.304 -30.256
239.350 52.302 -63.186
253.060 53.298 -98.029
267.560 54.292 -134.910
282.890 55.283 -173.933
299.090 56.268 144.804
316.230 57.250 101.124
334.340 58.227 54.952
353.500 59.200 6.084
373.750 60.169 -45.593
395.160 61.135 -100.276
417.800 62.099 -158.175
441.730 63.057 140.512
467.040 64.003 75.501
493.800 64.923 6.564
522.090 65.799 -66.518
552.000 66.608 -143.933
583.620 67.328 134.209
617.050 67.949 47.824
652.400 68.470 -43.188
689.780 68.896 -138.955
729.290 69.238 120.398
771.080 69.504 14.612
815.250 69.705 -96.407
861.950 69.865 147.182
911.330 70.042 25.218
963.540 70.327 -102.756
1018.740 70.818 122.318
1077.110 71.515 -21.085
1138.810 72.296 -174.078
1204.050 73.012 22.890
1273.030 73.623 -150.084
1345.960 74.133 26.567
1423.070 74.522 -167.715
1504.590 74.720 -13.655
1590.790 74.632 128.554
1681.920 74.221 -100.940
1778.280 73.514 17.860
1880.150 72.560 124.345
1987.870 71.302 -141.646
2101.750 69.682 -59.043
2222.150 68.217 14.736
2349.460 67.887 75.363
2484.060 68.547 115.172
2626.360 69.662 131.023
2776.820 70.693 120.985
2935.900 71.204 84.775
3104.100 70.836 24.797
3281.930 69.466 -59.222
3469.940 66.677 -163.431
3668.730 63.375 85.357
3878.910 63.982 -46.941
4101.130 65.933 131.075
4336.070 66.210 -98.506
4584.480 64.849 -6.255
4847.120 60.004 44.617
5124.810 42.763 55.574
5418.400 54.302 -145.600
5728.810 58.544 136.031
6057.010 54.499 -26.171
6404.000 48.351 -169.227
6770.880 50.582 -172.022
7158.770 54.548 -112.178
7568.890 53.941 -71.934
8002.500 48.158 -121.675
8460.950 52.881 -36.005
8945.670 44.040 -162.501
9458.160 41.455 167.431
10000.000 43.178 -97.151
