# Freq(Hz) SPL(dB) Phase (degrees)
10.000 -2.554 156.851
10.570 -1.591 155.532
11.180 -0.617 154.120
11.820 0.350 152.639
12.500 1.321 151.065
13.210 2.280 149.422
13.970 3.252 147.663
14.770 4.218 145.812
15.620 5.190 143.844
16.510 6.152 141.785
17.460 7.123 139.586
18.460 8.090 137.272
19.510 9.050 134.842
20.630 10.019 132.251
21.810 10.984 129.520
23.060 11.951 126.628
24.380 12.916 123.574
25.780 13.884 120.335
27.260 14.852 116.911
28.820 15.817 113.302
30.470 16.782 109.485
32.220 17.750 105.437
34.060 18.712 101.181
36.010 19.676 96.672
38.080 20.643 91.885
40.260 21.607 86.845
42.560 22.568 81.527
45.000 23.531 75.887
47.580 24.495 69.924
50.310 25.458 63.616
53.190 26.419 56.963
56.230 27.377 49.941
59.460 28.340 42.482
62.860 29.297 34.633
66.460 30.255 26.324
70.270 31.212 17.534
74.300 32.169 8.239
78.550 33.122 -1.559
83.050 34.076 -11.930
87.810 35.028 -22.894
92.840 35.979 -34.474
98.160 36.928 -46.715
103.780 37.874 -59.638
109.730 38.820 -73.311
116.020 39.764 -87.754
122.660 40.704 -102.989
129.690 41.644 -119.105
137.120 42.581 -136.122
144.970 43.515 -154.082
153.280 44.449 -173.074
162.060 45.380 166.883
171.340 46.309 145.727
181.160 47.237 123.370
191.540 48.165 99.773
202.510 49.092 74.872
214.110 50.022 48.583
226.380 50.954 20.819
239.350 51.892 -8.484
253.060 52.838 -39.416
267.560 53.795 -72.096
282.890 54.767 -106.624
299.090 55.756 -143.108
316.230 56.767 178.265
334.340 57.801 137.392
353.500 58.860 94.046
373.750 59.942 48.091
395.160 61.043 -0.679
417.800 62.158 -52.459
441.730 63.280 -107.410
467.040 64.403 -165.742
493.800 65.521 132.385
522.090 66.631 66.783
552.000 67.730 -2.779
583.620 68.807 -76.558
617.050 69.843 -154.807
652.400 70.810 122.294
689.780 71.687 34.722
729.290 72.482 -57.419
771.080 73.246 -154.258
815.250 74.039 103.879
861.950 74.891 -3.706
911.330 75.792 -117.701
963.540 76.715 121.317
1018.740 77.632 -7.286
1077.110 78.459 -144.184
1138.810 79.067 70.505
1204.050 79.395 -82.816
1273.030 79.486 116.302
1345.960 79.432 -52.285
1423.070 79.308 131.021
1504.590 79.197 -54.415
1590.790 79.160 110.360
1681.920 79.166 -95.830
1778.280 79.153 46.344
1880.150 79.098 176.374
1987.870 78.945 -66.153
2101.750 78.787 38.816
2222.150 78.736 130.375
2349.460 78.961 -153.118
2484.060 79.331 -94.470
2626.360 79.552 -53.820
2776.820 79.740 -30.344
2935.900 80.199 -26.390
3104.100 80.624 -46.463
3281.930 80.794 -86.277
3469.940 80.827 -149.335
3668.730 80.859 122.671
3878.910 80.460 9.219
4101.130 79.978 -128.043
4336.070 79.835 66.597
4584.480 79.499 -130.441
4847.120 78.958 2.705
5124.810 78.747 102.335
5418.400 78.387 167.039
5728.810 78.396 -166.165
6057.010 78.121 177.599
6404.000 77.507 118.503
6770.880 76.279 19.500
7158.770 75.341 -125.315
7568.890 74.529 42.798
8002.500 74.096 152.718
8460.950 73.256 -152.590
8945.670 72.159 -157.098
9458.160 69.910 141.438
10000.000 68.294 12.901
