# Freq(Hz) SPL(dB) Phase (degrees)
10.000 -0.906 160.712
10.570 0.057 159.613
11.180 1.031 158.437
11.820 1.998 157.203
12.500 2.970 155.892
13.210 3.930 154.524
13.970 4.901 153.059
14.770 5.868 151.516
15.620 6.840 149.878
16.510 7.803 148.163
17.460 8.774 146.332
18.460 9.742 144.404
19.510 10.702 142.381
20.630 11.672 140.223
21.810 12.638 137.950
23.060 13.606 135.542
24.380 14.572 132.999
25.780 15.542 130.303
27.260 16.511 127.453
28.820 17.477 124.450
30.470 18.444 121.274
32.220 19.414 117.907
34.060 20.378 114.367
36.010 21.345 110.617
38.080 22.315 106.637
40.260 23.282 102.447
42.560 24.247 98.028
45.000 25.215 93.341
47.580 26.184 88.388
50.310 27.153 83.150
53.190 28.121 77.626
56.230 29.087 71.799
59.460 30.058 65.610
62.860 31.026 59.100
66.460 31.997 52.211
70.270 32.969 44.925
74.300 33.943 37.222
78.550 34.916 29.104
83.050 35.892 20.513
87.810 36.872 11.431
92.840 37.854 1.837
98.160 38.840 -8.306
103.780 39.829 -19.021
109.730 40.825 -30.366
116.020 41.827 -42.363
122.660 42.834 -55.037
129.690 43.850 -68.470
137.120 44.875 -82.690
144.970 45.908 -97.745
153.280 46.954 -113.724
162.060 48.009 -130.660
171.340 49.074 -148.628
181.160 50.150 -167.721
191.540 51.234 172.002
202.510 52.324 150.468
214.110 53.419 127.583
226.380 54.515 103.258
239.350 55.606 77.428
253.060 56.689 50.019
267.560 57.759 20.942
282.890 58.811 -9.856
299.090 59.841 -42.420
316.230 60.848 -76.843
334.340 61.831 -113.125
353.500 62.795 -151.366
373.750 63.749 168.412
395.160 64.706 126.102
417.800 65.686 81.554
441.730 66.706 34.566
467.040 67.783 -15.207
493.800 68.914 -68.136
522.090 70.077 -124.607
552.000 71.230 175.061
583.620 72.323 110.711
617.050 73.306 42.360
652.400 74.156 -29.814
689.780 74.893 -105.547
729.290 75.593 175.235
771.080 76.345 91.923
815.250 77.147 3.614
861.950 77.891 -90.258
911.330 78.498 170.636
963.540 79.055 66.785
1018.740 79.751 -42.647
1077.110 80.542 -159.950
1138.810 81.054 74.056
1204.050 81.028 -58.696
1273.030 80.668 164.024
1345.960 80.415 21.625
1423.070 80.331 -128.956
1504.590 80.091 71.254
1590.790 79.529 -96.744
1681.920 78.668 88.213
1778.280 77.799 -91.619
1880.150 77.907 80.972
1987.870 78.385 -123.090
2101.750 78.245 22.429
2222.150 78.865 158.849
2349.460 79.933 -82.684
2484.060 80.645 18.735
2626.360 81.054 108.179
2776.820 82.296 -179.560
2935.900 82.899 -129.713
3104.100 83.000 -93.361
3281.930 83.523 -79.250
3469.940 82.978 -84.287
3668.730 82.883 -105.719
3878.910 82.058 -153.685
4101.130 81.100 141.638
4336.070 79.584 50.115
4584.480 78.228 -58.027
4847.120 75.744 171.480
5124.810 75.999 21.875
5418.400 78.610 -163.070
5728.810 80.414 -40.394
6057.010 81.043 42.156
6404.000 80.512 91.444
6770.880 78.655 108.259
7158.770 76.804 92.309
7568.890 75.439 32.757
8002.500 73.562 -70.078
8460.950 71.955 150.878
8945.670 72.813 -39.983
9458.160 73.213 54.699
10000.000 71.052 98.023
