# Freq(Hz) SPL(dB) Phase (degrees)
10.000 -2.240 157.646
10.570 -1.277 156.372
11.180 -0.302 155.009
11.820 0.664 153.579
12.500 1.636 152.059
13.210 2.595 150.472
13.970 3.566 148.774
14.770 4.533 146.986
15.620 5.504 145.086
16.510 6.466 143.098
17.460 7.438 140.975
18.460 8.404 138.740
19.510 9.365 136.394
20.630 10.333 133.891
21.810 11.298 131.255
23.060 12.265 128.462
24.380 13.231 125.513
25.780 14.199 122.386
27.260 15.167 119.080
28.820 16.132 115.595
30.470 17.097 111.910
32.220 18.065 108.002
34.060 19.027 103.893
36.010 19.991 99.539
38.080 20.959 94.918
40.260 21.923 90.052
42.560 22.884 84.919
45.000 23.848 79.474
47.580 24.812 73.718
50.310 25.775 67.629
53.190 26.736 61.207
56.230 27.696 54.429
59.460 28.659 47.230
62.860 29.617 39.654
66.460 30.576 31.635
70.270 31.535 23.152
74.300 32.493 14.182
78.550 33.448 4.726
83.050 34.404 -5.282
87.810 35.359 -15.863
92.840 36.313 -27.039
98.160 37.266 -38.853
103.780 38.217 -51.327
109.730 39.169 -64.526
116.020 40.119 -78.473
122.660 41.068 -93.187
129.690 42.017 -108.758
137.120 42.965 -125.206
144.970 43.912 -142.577
153.280 44.860 -160.958
162.060 45.807 179.627
171.340 46.754 159.111
181.160 47.702 137.405
191.540 48.650 114.462
202.510 49.597 90.214
214.110 50.545 64.570
226.380 51.493 37.441
239.350 52.441 8.756
253.060 53.387 -21.573
267.560 54.333 -53.659
282.890 55.278 -87.594
299.090 56.220 -123.469
316.230 57.161 -161.445
334.340 58.099 158.402
353.500 59.031 115.884
373.750 59.954 70.905
395.160 60.862 23.314
417.800 61.749 -27.020
441.730 62.607 -80.168
467.040 63.436 -136.233
493.800 64.245 164.746
522.090 65.057 102.673
552.000 65.904 37.316
583.620 66.813 -31.717
617.050 67.787 -104.929
652.400 68.803 177.204
689.780 69.828 94.335
729.290 70.835 6.235
771.080 71.805 -87.454
815.250 72.707 172.950
861.950 73.477 67.091
911.330 74.029 -44.995
963.540 74.330 -162.781
1018.740 74.464 74.394
1077.110 74.648 -53.633
1138.810 75.058 171.494
1204.050 75.640 27.077
1273.030 75.991 -127.927
1345.960 75.764 67.438
1423.070 74.827 -104.021
1504.590 73.645 81.148
1590.790 73.167 -99.515
1681.920 73.254 65.931
1778.280 72.773 -142.861
1880.150 71.388 1.499
1987.870 70.785 144.242
2101.750 72.053 -90.174
2222.150 73.179 13.229
2349.460 73.823 101.337
2484.060 74.620 173.624
2626.360 75.359 -133.330
2776.820 75.862 -99.444
2935.900 75.934 -86.049
3104.100 75.414 -90.373
3281.930 75.110 -114.490
3469.940 73.924 -166.719
3668.730 71.244 130.552
3878.910 69.257 40.687
4101.130 65.095 -46.199
4336.070 66.724 -171.969
4584.480 68.147 37.139
4847.120 69.648 -165.986
5124.810 69.870 -42.290
5418.400 69.597 48.139
5728.810 67.471 109.005
6057.010 65.905 129.350
6404.000 65.601 128.815
6770.880 65.468 83.236
7158.770 66.103 -32.796
7568.890 65.895 158.442
8002.500 60.196 -26.518
8460.950 54.696 98.849
8945.670 59.361 176.532
9458.160 60.433 130.710
10000.000 59.627 64.352
