# Freq(Hz) SPL(dB) Phase (degrees)
10.000 -2.209 157.722
10.570 -1.247 156.452
11.180 -0.272 155.094
11.820 0.694 153.668
12.500 1.666 152.154
13.210 2.625 150.573
13.970 3.596 148.880
14.770 4.563 147.098
15.620 5.534 145.205
16.510 6.496 143.223
17.460 7.467 141.108
18.460 8.434 138.881
19.510 9.394 136.543
20.630 10.363 134.049
21.810 11.328 131.422
23.060 12.294 128.639
24.380 13.260 125.701
25.780 14.228 122.584
27.260 15.196 119.290
28.820 16.160 115.818
30.470 17.125 112.147
32.220 18.093 108.253
34.060 19.054 104.159
36.010 20.018 99.822
38.080 20.986 95.218
40.260 21.949 90.371
42.560 22.909 85.258
45.000 23.873 79.835
47.580 24.836 74.102
50.310 25.799 68.038
53.190 26.759 61.643
56.230 27.717 54.894
59.460 28.679 47.727
62.860 29.636 40.186
66.460 30.594 32.205
70.270 31.552 23.764
74.300 32.509 14.839
78.550 33.462 5.434
83.050 34.416 -4.517
87.810 35.369 -15.036
92.840 36.321 -26.142
98.160 37.272 -37.877
103.780 38.220 -50.263
109.730 39.170 -63.361
116.020 40.118 -77.193
122.660 41.064 -91.777
129.690 42.012 -107.198
137.120 42.959 -123.476
144.970 43.906 -140.649
153.280 44.856 -158.804
162.060 45.808 -177.959
171.340 46.763 161.823
181.160 47.724 140.456
191.540 48.691 117.896
202.510 49.667 94.076
214.110 50.654 68.903
226.380 51.655 42.281
239.350 52.673 14.130
253.060 53.708 -15.656
267.560 54.764 -47.214
282.890 55.841 -80.661
299.090 56.939 -116.123
316.230 58.058 -153.790
334.340 59.191 166.237
353.500 60.336 123.752
373.750 61.484 78.649
395.160 62.629 30.771
417.800 63.761 -20.017
441.730 64.874 -73.809
467.040 65.965 -130.741
493.800 67.036 169.101
522.090 68.095 105.597
552.000 69.154 38.564
583.620 70.225 -32.228
617.050 71.313 -107.054
652.400 72.424 173.801
689.780 73.569 90.047
729.290 74.762 1.317
771.080 76.005 -93.016
815.250 77.261 166.514
861.950 78.463 59.470
911.330 79.548 -54.313
963.540 80.481 -174.852
1018.740 81.247 57.771
1077.110 81.828 -76.534
1138.810 82.229 142.453
1204.050 82.529 -5.271
1273.030 82.865 -160.373
1345.960 83.252 35.896
1423.070 83.619 -137.406
1504.590 83.869 39.260
1590.790 83.920 -154.100
1681.920 83.830 3.064
1778.280 83.781 150.071
1880.150 83.820 -74.447
1987.870 83.927 48.207
2101.750 84.008 157.120
2222.150 83.964 -107.949
2349.460 83.903 -26.738
2484.060 84.059 39.280
2626.360 84.336 87.423
2776.820 84.540 117.521
2935.900 84.854 128.820
3104.100 85.180 118.537
3281.930 85.402 86.843
3469.940 85.481 31.988
3668.730 85.211 -47.458
3878.910 84.596 -149.820
4101.130 83.988 83.582
4336.070 83.373 -70.689
4584.480 82.713 107.056
4847.120 82.108 -106.286
5124.810 81.253 8.512
5418.400 80.675 90.243
5728.810 80.208 135.618
6057.010 79.718 140.885
6404.000 78.941 103.498
6770.880 77.864 25.560
7158.770 76.765 -95.176
7568.890 76.351 94.005
8002.500 75.723 -123.578
8460.950 75.413 -40.327
8945.670 74.207 -20.203
9458.160 73.361 -57.727
10000.000 72.263 -157.481
