# Freq(Hz) SPL(dB) Phase (degrees)
10.000 -1.006 160.496
10.570 -0.043 159.385
11.180 0.931 158.196
11.820 1.898 156.948
12.500 2.870 155.622
13.210 3.830 154.238
13.970 4.801 152.757
14.770 5.769 151.197
15.620 6.741 149.541
16.510 7.703 147.806
17.460 8.675 145.955
18.460 9.642 144.006
19.510 10.603 141.960
20.630 11.573 139.778
21.810 12.539 137.479
23.060 13.507 135.044
24.380 14.474 132.473
25.780 15.444 129.747
27.260 16.414 126.866
28.820 17.381 123.829
30.470 18.348 120.618
32.220 19.318 117.214
34.060 20.283 113.635
36.010 21.251 109.843
38.080 22.222 105.819
40.260 23.189 101.583
42.560 24.155 97.116
45.000 25.125 92.379
47.580 26.094 87.372
50.310 27.065 82.077
53.190 28.034 76.494
56.230 29.002 70.604
59.460 29.975 64.351
62.860 30.945 57.772
66.460 31.918 50.812
70.270 32.893 43.452
74.300 33.870 35.672
78.550 34.846 27.474
83.050 35.827 18.801
87.810 36.811 9.633
92.840 37.798 -0.047
98.160 38.790 -10.280
103.780 39.786 -21.084
109.730 40.790 -32.520
116.020 41.802 -44.608
122.660 42.821 -57.373
129.690 43.851 -70.896
137.120 44.893 -85.204
144.970 45.947 -100.346
153.280 47.018 -116.413
162.060 48.103 -133.439
171.340 49.205 -151.501
181.160 50.325 -170.698
191.540 51.462 168.907
202.510 52.615 147.230
214.110 53.783 124.168
226.380 54.963 99.619
239.350 56.151 73.507
253.060 57.341 45.741
267.560 58.530 16.218
282.890 59.711 -15.129
299.090 60.879 -48.357
316.230 62.031 -83.566
334.340 63.164 -120.762
353.500 64.282 -160.041
373.750 65.391 158.584
395.160 66.505 115.026
417.800 67.644 69.158
441.730 68.835 20.800
467.040 70.102 -30.398
493.800 71.454 -84.861
522.090 72.878 -143.083
552.000 74.328 154.488
583.620 75.740 87.597
617.050 77.055 16.193
652.400 78.231 -59.623
689.780 79.257 -139.672
729.290 80.153 136.232
771.080 80.970 48.035
815.250 81.772 -44.502
861.950 82.598 -142.034
911.330 83.425 114.749
963.540 84.197 5.479
1018.740 84.885 -109.918
1077.110 85.506 128.391
1138.810 86.077 0.006
1204.050 86.581 -135.550
1273.030 87.002 81.410
1345.960 87.342 -69.385
1423.070 87.635 131.753
1504.590 87.931 -36.065
1590.790 88.134 145.872
1681.920 88.059 -42.338
1778.280 87.708 120.068
1880.150 87.234 -86.853
1987.870 86.758 55.700
2101.750 86.178 -173.168
2222.150 85.564 -52.754
2349.460 85.182 55.388
2484.060 85.066 149.333
2626.360 85.121 -133.452
2776.820 84.959 -73.823
2935.900 84.506 -29.779
3104.100 84.125 -1.996
3281.930 83.746 9.404
3469.940 84.375 1.769
3668.730 85.192 -33.245
3878.910 85.594 -93.683
4101.130 85.494 -177.586
4336.070 85.144 75.672
4584.480 85.214 -57.054
4847.120 85.142 140.831
5124.810 84.677 -52.528
5418.400 83.965 87.413
5728.810 83.743 -164.796
6057.010 83.429 -95.576
6404.000 82.980 -58.251
6770.880 83.268 -58.837
7158.770 83.890 -106.646
7568.890 84.102 161.340
8002.500 84.463 23.343
8460.950 84.428 -165.874
8945.670 84.179 -45.321
9458.160 84.366 19.705
10000.000 84.313 25.592
