# Freq(Hz) SPL(dB) Phase (degrees)
10.000 -1.463 159.489
10.570 -0.500 158.320
11.180 0.474 157.069
11.820 1.441 155.757
12.500 2.412 154.363
13.210 3.372 152.907
13.970 4.343 151.349
14.770 5.310 149.709
15.620 6.282 147.967
16.510 7.244 146.142
17.460 8.216 144.195
18.460 9.183 142.145
19.510 10.143 139.994
20.630 11.112 137.698
21.810 12.078 135.281
23.060 13.045 132.720
24.380 14.011 130.016
25.780 14.980 127.148
27.260 15.949 124.117
28.820 16.914 120.923
30.470 17.880 117.545
32.220 18.849 113.964
34.060 19.812 110.199
36.010 20.778 106.210
38.080 21.747 101.976
40.260 22.712 97.520
42.560 23.675 92.819
45.000 24.641 87.835
47.580 25.607 82.567
50.310 26.574 76.995
53.190 27.539 71.120
56.230 28.502 64.923
59.460 29.469 58.342
62.860 30.432 51.420
66.460 31.397 44.096
70.270 32.364 36.352
74.300 33.331 28.167
78.550 34.296 19.543
83.050 35.263 10.420
87.810 36.232 0.781
92.840 37.202 -9.395
98.160 38.175 -20.146
103.780 39.150 -31.491
109.730 40.129 -43.490
116.020 41.112 -56.163
122.660 42.100 -69.530
129.690 43.095 -83.672
137.120 44.098 -98.613
144.970 45.110 -114.396
153.280 46.134 -131.109
162.060 47.170 -148.779
171.340 48.221 -167.481
181.160 49.289 172.690
191.540 50.375 151.675
202.510 51.478 129.391
214.110 52.601 105.730
226.380 53.743 80.584
239.350 54.900 53.864
253.060 56.071 25.462
267.560 57.252 -4.744
282.890 58.438 -36.851
299.090 59.622 -70.942
316.230 60.800 -107.151
334.340 61.965 -145.511
353.500 63.114 173.857
373.750 64.245 130.933
395.160 65.362 85.646
417.800 66.474 37.931
441.730 67.601 -12.277
467.040 68.771 -65.166
493.800 70.016 -121.000
522.090 71.362 179.786
552.000 72.806 116.629
583.620 74.316 48.989
617.050 75.831 -23.528
652.400 77.289 -101.125
689.780 78.637 176.171
729.290 79.843 88.464
771.080 80.900 -4.200
815.250 81.827 -101.693
861.950 82.669 155.869
911.330 83.481 48.149
963.540 84.302 -65.479
1018.740 85.126 174.159
1077.110 85.871 46.296
1138.810 86.411 -89.166
1204.050 86.704 128.280
1273.030 86.830 -21.144
1345.960 86.891 -177.928
1423.070 86.911 17.036
1504.590 86.841 -157.012
1590.790 86.608 19.889
1681.920 86.305 -171.883
1778.280 86.119 -13.733
1880.150 85.911 132.487
1987.870 85.461 -92.774
2101.750 85.001 31.797
2222.150 84.844 143.475
2349.460 84.652 -120.326
2484.060 84.317 -37.624
2626.360 84.211 30.271
2776.820 84.209 80.914
2935.900 84.318 113.695
3104.100 84.330 126.779
3281.930 84.454 121.169
3469.940 84.526 93.062
3668.730 84.570 44.165
3878.910 84.704 -28.720
4101.130 84.978 -126.507
4336.070 85.211 108.406
4584.480 85.498 -45.632
4847.120 85.472 130.558
5124.810 85.152 -85.232
5418.400 84.445 28.706
5728.810 83.736 111.023
6057.010 83.462 158.498
6404.000 83.732 165.446
6770.880 83.467 129.240
7158.770 83.156 48.103
7568.890 82.379 -76.466
8002.500 82.126 114.105
8460.950 81.780 -108.217
8945.670 81.093 -25.229
9458.160 80.710 1.531
10000.000 80.266 -31.097
