# Freq(Hz) SPL(dB) Phase (degrees)
10.000 -2.853 156.065
10.570 -1.891 154.701
11.180 -0.916 153.241
11.820 0.051 151.710
12.500 1.022 150.083
13.210 1.982 148.383
13.970 2.953 146.565
14.770 3.920 144.650
15.620 4.892 142.616
16.510 5.854 140.486
17.460 6.825 138.213
18.460 7.792 135.820
19.510 8.752 133.307
20.630 9.721 130.627
21.810 10.687 127.804
23.060 11.654 124.813
24.380 12.620 121.654
25.780 13.589 118.304
27.260 14.557 114.763
28.820 15.523 111.031
30.470 16.488 107.083
32.220 17.457 102.896
34.060 18.419 98.494
36.010 19.384 93.829
38.080 20.353 88.878
40.260 21.317 83.663
42.560 22.279 78.162
45.000 23.244 72.326
47.580 24.209 66.156
50.310 25.174 59.628
53.190 26.137 52.741
56.230 27.097 45.473
59.460 28.061 37.752
62.860 29.021 29.625
66.460 29.981 21.021
70.270 30.942 11.916
74.300 31.902 2.288
78.550 32.859 -7.865
83.050 33.816 -18.612
87.810 34.772 -29.978
92.840 35.727 -41.987
98.160 36.680 -54.684
103.780 37.632 -68.094
109.730 38.583 -82.287
116.020 39.532 -97.287
122.660 40.477 -113.116
129.690 41.422 -129.868
137.120 42.364 -147.567
144.970 43.302 -166.258
153.280 44.239 173.965
162.060 45.172 153.082
171.340 46.101 131.022
181.160 47.027 107.695
191.540 47.949 83.058
202.510 48.866 57.045
214.110 49.778 29.567
226.380 50.686 0.539
239.350 51.590 -30.102
253.060 52.490 -62.440
267.560 53.388 -96.582
282.890 54.286 -132.610
299.090 55.185 -170.612
316.230 56.090 149.252
334.340 57.005 106.909
353.500 57.934 62.160
373.750 58.881 14.888
395.160 59.850 -35.104
417.800 60.843 -88.017
441.730 61.859 -144.033
467.040 62.900 156.604
493.800 63.964 93.697
522.090 65.056 27.010
552.000 66.179 -43.753
583.620 67.328 -118.947
617.050 68.488 161.017
652.400 69.622 75.759
689.780 70.679 -14.943
729.290 71.621 -111.092
771.080 72.438 147.269
815.250 73.145 40.123
861.950 73.759 -72.817
911.330 74.278 168.154
963.540 74.706 42.805
1018.740 75.061 -89.056
1077.110 75.375 132.161
1138.810 75.675 -14.038
1204.050 75.979 -168.242
1273.030 76.279 28.707
1345.960 76.536 -143.830
1423.070 76.711 33.543
1504.590 76.727 -159.848
1590.790 76.454 -4.009
1681.920 75.919 141.746
1778.280 75.218 -82.954
1880.150 74.391 41.936
1987.870 73.703 156.179
2101.750 73.344 -102.564
2222.150 73.264 -16.475
2349.460 73.337 52.692
2484.060 73.329 104.168
2626.360 73.169 138.478
2776.820 73.149 156.441
2935.900 73.729 152.928
3104.100 74.162 127.637
3281.930 73.880 72.017
3469.940 73.204 1.180
3668.730 73.174 -92.802
3878.910 73.134 143.702
4101.130 72.503 -5.679
4336.070 72.327 179.143
4584.480 72.583 -30.532
4847.120 72.229 82.484
5124.810 71.077 166.589
5418.400 70.642 -142.784
5728.810 70.136 -135.567
6057.010 69.345 -166.953
6404.000 68.588 110.215
6770.880 66.835 -1.495
7158.770 65.938 -161.093
7568.890 63.960 -7.853
8002.500 65.180 81.677
8460.950 64.013 109.144
8945.670 63.365 82.096
9458.160 61.874 -14.220
10000.000 58.077 -173.939
