# Freq(Hz) SPL(dB) Phase (degrees)
10.000 -1.477 159.459
10.570 -0.514 158.288
11.180 0.460 157.036
11.820 1.427 155.722
12.500 2.398 154.325
13.210 3.358 152.867
13.970 4.329 151.307
14.770 5.296 149.664
15.620 6.268 147.919
16.510 7.230 146.092
17.460 8.201 144.142
18.460 9.168 142.089
19.510 10.128 139.934
20.630 11.097 137.635
21.810 12.062 135.214
23.060 13.029 132.649
24.380 13.995 129.940
25.780 14.963 127.068
27.260 15.932 124.032
28.820 16.897 120.832
30.470 17.862 117.449
32.220 18.830 113.861
34.060 19.793 110.089
36.010 20.758 106.093
38.080 21.726 101.852
40.260 22.690 97.386
42.560 23.652 92.677
45.000 24.617 87.682
47.580 25.582 82.403
50.310 26.547 76.819
53.190 27.510 70.931
56.230 28.471 64.718
59.460 29.436 58.121
62.860 30.397 51.181
66.460 31.359 43.836
70.270 32.322 36.068
74.300 33.285 27.857
78.550 34.246 19.204
83.050 35.209 10.048
87.810 36.172 0.370
92.840 37.136 -9.849
98.160 38.101 -20.650
103.780 39.067 -32.052
109.730 40.036 -44.117
116.020 41.008 -56.864
122.660 41.980 -70.316
129.690 42.958 -84.555
137.120 43.941 -99.606
144.970 44.927 -115.511
153.280 45.921 -132.360
162.060 46.921 -150.179
171.340 47.928 -169.040
181.160 48.943 170.967
191.540 49.965 149.787
202.510 50.994 127.346
214.110 52.028 103.549
226.380 53.067 78.301
239.350 54.107 51.531
253.060 55.146 23.149
267.560 56.180 -6.948
282.890 57.205 -38.839
299.090 58.218 -72.591
316.230 59.216 -108.329
334.340 60.195 -146.078
353.500 61.154 174.040
373.750 62.094 132.002
395.160 63.021 87.729
417.800 63.947 41.140
441.730 64.892 -7.857
467.040 65.884 -59.492
493.800 66.952 -114.081
522.090 68.108 -172.096
552.000 69.337 125.897
583.620 70.591 59.392
617.050 71.793 -11.946
652.400 72.858 -88.198
689.780 73.715 -169.129
729.290 74.342 105.795
771.080 74.793 17.034
815.250 75.203 -75.240
861.950 75.724 -171.772
911.330 76.412 85.953
963.540 77.156 -23.548
1018.740 77.721 -140.876
1077.110 77.887 94.591
1138.810 77.600 -35.320
1204.050 77.149 -169.297
1273.030 76.910 51.102
1345.960 76.784 -96.830
1423.070 76.534 106.922
1504.590 76.222 -57.505
1590.790 75.723 128.879
1681.920 74.859 -51.292
1778.280 74.577 123.766
1880.150 75.253 -75.608
1987.870 75.391 69.428
2101.750 75.410 -152.263
2222.150 76.585 -29.236
2349.460 77.262 73.565
2484.060 77.388 164.179
2626.360 77.824 -119.760
2776.820 78.210 -62.088
2935.900 78.231 -22.249
3104.100 78.565 2.733
3281.930 78.502 1.722
3469.940 77.508 -15.527
3668.730 77.047 -55.682
3878.910 75.430 -111.069
4101.130 74.786 168.590
4336.070 73.964 64.424
4584.480 73.203 -68.240
4847.120 71.605 141.224
5124.810 70.690 -36.678
5418.400 72.531 110.628
5728.810 74.265 -146.701
6057.010 74.604 -89.023
6404.000 73.122 -69.833
6770.880 70.331 -83.040
7158.770 68.559 -120.761
7568.890 67.684 169.611
8002.500 67.328 9.485
8460.950 64.262 -165.972
8945.670 63.838 -30.593
9458.160 63.829 24.207
10000.000 62.616 28.367
