# Freq(Hz) SPL(dB) Phase (degrees)
10.000 -3.265 154.937
10.570 -2.302 153.509
11.180 -1.327 151.980
11.820 -0.360 150.376
12.500 0.612 148.672
13.210 1.571 146.893
13.970 2.543 144.989
14.770 3.511 142.984
15.620 4.483 140.854
16.510 5.445 138.623
17.460 6.417 136.243
18.460 7.385 133.736
19.510 8.346 131.105
20.630 9.316 128.298
21.810 10.282 125.341
23.060 11.250 122.209
24.380 12.217 118.901
25.780 13.188 115.392
27.260 14.157 111.683
28.820 15.124 107.774
30.470 16.092 103.639
32.220 17.062 99.253
34.060 18.027 94.642
36.010 18.994 89.755
38.080 19.966 84.567
40.260 20.933 79.104
42.560 21.899 73.340
45.000 22.868 67.225
47.580 23.837 60.759
50.310 24.806 53.917
53.190 25.774 46.699
56.230 26.740 39.080
59.460 27.711 30.985
62.860 28.678 22.464
66.460 29.647 13.441
70.270 30.617 3.891
74.300 31.587 -6.210
78.550 32.555 -16.863
83.050 33.525 -28.144
87.810 34.495 -40.077
92.840 35.465 -52.688
98.160 36.436 -66.027
103.780 37.407 -80.121
109.730 38.379 -95.043
116.020 39.351 -110.822
122.660 40.323 -127.481
129.690 41.296 -145.123
137.120 42.270 -163.774
144.970 43.243 176.515
153.280 44.218 155.642
162.060 45.193 133.580
171.340 46.167 110.251
181.160 47.143 85.554
191.540 48.118 59.436
202.510 49.091 31.820
214.110 50.064 2.603
226.380 51.035 -28.314
239.350 52.003 -61.008
253.060 52.967 -95.579
267.560 53.928 -132.148
282.890 54.883 -170.813
299.090 55.833 148.331
316.230 56.779 105.112
334.340 57.718 59.461
353.500 58.654 11.178
373.750 59.586 -39.839
395.160 60.516 -93.775
417.800 61.443 -150.823
441.730 62.365 148.848
467.040 63.281 84.988
493.800 64.181 17.412
522.090 65.060 -54.068
552.000 65.908 -129.635
583.620 66.724 150.558
617.050 67.512 66.324
652.400 68.279 -22.580
689.780 69.034 -116.450
729.290 69.775 144.437
771.080 70.500 39.721
815.250 71.213 -70.806
861.950 71.924 172.469
911.330 72.642 49.098
963.540 73.364 -81.370
1018.740 74.095 140.584
1077.110 74.828 -5.738
1138.810 75.512 -161.009
1204.050 76.049 34.707
1273.030 76.454 -138.801
1345.960 76.755 38.306
1423.070 76.995 -154.660
1504.590 77.163 1.582
1590.790 77.184 146.361
1681.920 77.057 -80.203
1778.280 76.878 41.227
1880.150 76.657 149.733
1987.870 76.383 -115.604
2101.750 76.050 -35.449
2222.150 75.633 29.362
2349.460 75.107 78.682
2484.060 74.638 112.069
2626.360 74.350 128.035
2776.820 74.412 125.077
2935.900 74.925 99.192
3104.100 75.413 47.008
3281.930 75.660 -29.706
3469.940 75.281 -132.731
3668.730 74.346 100.102
3878.910 73.322 -50.346
4101.130 72.716 133.638
4336.070 72.764 -74.032
4584.480 72.903 41.813
4847.120 72.865 121.017
5124.810 72.294 161.692
5418.400 71.267 165.773
5728.810 70.146 134.250
6057.010 69.237 57.725
6404.000 69.159 -66.300
6770.880 67.498 121.327
7158.770 65.425 -98.546
7568.890 67.162 4.808
8002.500 63.801 16.527
8460.950 60.936 -30.061
8945.670 60.881 -130.803
9458.160 61.485 58.734
10000.000 57.058 -154.161
