# Freq(Hz) SPL(dB) Phase (degrees)
10.000 -3.021 155.613
10.570 -2.058 154.223
11.180 -1.083 152.736
11.820 -0.116 151.176
12.500 0.855 149.517
13.210 1.815 147.786
13.970 2.786 145.933
14.770 3.753 143.982
15.620 4.725 141.910
16.510 5.687 139.740
17.460 6.659 137.423
18.460 7.626 134.985
19.510 8.587 132.425
20.630 9.556 129.694
21.810 10.522 126.817
23.060 11.489 123.769
24.380 12.456 120.551
25.780 13.425 117.137
27.260 14.394 113.529
28.820 15.360 109.725
30.470 16.326 105.702
32.220 17.295 101.436
34.060 18.258 96.950
36.010 19.224 92.196
38.080 20.193 87.150
40.260 21.159 81.835
42.560 22.122 76.228
45.000 23.088 70.280
47.580 24.054 63.992
50.310 25.021 57.337
53.190 25.985 50.318
56.230 26.947 42.908
59.460 27.914 35.037
62.860 28.876 26.751
66.460 29.839 17.978
70.270 30.802 8.694
74.300 31.766 -1.125
78.550 32.726 -11.479
83.050 33.687 -22.442
87.810 34.648 -34.037
92.840 35.607 -46.289
98.160 36.566 -59.246
103.780 37.523 -72.933
109.730 38.481 -87.422
116.020 39.437 -102.738
122.660 40.390 -118.905
129.690 41.343 -136.019
137.120 42.294 -154.106
144.970 43.242 -173.213
153.280 44.190 166.563
162.060 45.134 145.197
171.340 46.075 122.618
181.160 47.013 98.731
191.540 47.947 73.487
202.510 48.876 46.818
214.110 49.800 18.629
226.380 50.719 -11.170
239.350 51.631 -42.645
253.060 52.537 -75.886
267.560 53.436 -111.001
282.890 54.328 -148.076
299.090 55.214 172.805
316.230 56.097 131.485
334.340 56.977 87.904
353.500 57.859 41.873
373.750 58.744 -6.705
395.160 59.637 -58.004
417.800 60.540 -112.208
441.730 61.456 -169.473
467.040 62.384 129.974
493.800 63.330 65.963
522.090 64.298 -1.700
552.000 65.302 -73.266
583.620 66.353 -149.062
617.050 67.458 130.470
652.400 68.598 44.822
689.780 69.731 -46.419
729.290 70.810 -143.441
771.080 71.807 113.591
815.250 72.720 4.606
861.950 73.550 -110.713
911.330 74.287 127.274
963.540 74.913 -1.759
1018.740 75.406 -138.118
1077.110 75.726 77.879
1138.810 75.833 -73.710
1204.050 75.757 127.422
1273.030 75.613 -39.012
1345.960 75.478 146.245
1423.070 75.387 -37.628
1504.590 75.394 128.290
1590.790 75.424 -77.303
1681.920 75.367 65.123
1778.280 75.214 -164.921
1880.150 74.928 -48.181
1987.870 74.397 54.909
2101.750 73.611 144.447
2222.150 72.518 -139.650
2349.460 71.182 -75.626
2484.060 70.387 -23.657
2626.360 70.471 10.281
2776.820 71.105 20.967
2935.900 71.546 6.582
3104.100 70.861 -34.729
3281.930 70.617 -87.619
3469.940 70.413 -166.988
3668.730 70.090 84.662
3878.910 68.471 -52.444
4101.130 65.523 155.970
4336.070 65.448 -10.596
4584.480 67.128 133.099
4847.120 67.697 -126.702
5124.810 66.396 -55.135
5418.400 66.306 -14.118
5728.810 66.910 -23.603
6057.010 64.837 -76.627
6404.000 63.032 -162.974
6770.880 61.645 54.182
7158.770 58.861 -124.262
7568.890 59.209 35.382
8002.500 51.951 85.129
8460.950 52.893 126.895
8945.670 51.733 89.434
9458.160 54.760 -44.031
10000.000 53.430 -179.714
