# Freq(Hz) SPL(dB) Phase (degrees)
10.000 -3.382 154.605
10.570 -2.419 153.157
11.180 -1.444 151.608
11.820 -0.477 149.983
12.500 0.495 148.256
13.210 1.455 146.453
13.970 2.427 144.524
14.770 3.394 142.492
15.620 4.367 140.334
16.510 5.330 138.074
17.460 6.302 135.661
18.460 7.270 133.122
19.510 8.231 130.456
20.630 9.201 127.611
21.810 10.168 124.615
23.060 11.137 121.441
24.380 12.104 118.089
25.780 13.075 114.533
27.260 14.046 110.775
28.820 15.013 106.813
30.470 15.982 102.623
32.220 16.953 98.179
34.060 17.919 93.506
36.010 18.888 88.554
38.080 19.860 83.297
40.260 20.829 77.760
42.560 21.796 71.919
45.000 22.767 65.722
47.580 23.738 59.169
50.310 24.710 52.236
53.190 25.681 44.920
56.230 26.650 37.199
59.460 27.624 28.994
62.860 28.595 20.357
66.460 29.568 11.211
70.270 30.542 1.532
74.300 31.517 -8.708
78.550 32.491 -19.507
83.050 33.467 -30.943
87.810 34.445 -43.041
92.840 35.423 -55.827
98.160 36.403 -69.352
103.780 37.384 -83.644
109.730 38.367 -98.777
116.020 39.352 -114.780
122.660 40.338 -131.679
129.690 41.327 -149.577
137.120 42.318 -168.501
144.970 43.311 171.496
153.280 44.308 150.308
162.060 45.307 127.909
171.340 46.309 104.219
181.160 47.315 79.131
191.540 48.324 52.590
202.510 49.335 24.517
214.110 50.350 -5.195
226.380 51.367 -36.653
239.350 52.386 -69.936
253.060 53.407 -105.150
267.560 54.429 -142.424
282.890 55.452 178.139
299.090 56.476 136.435
316.230 57.501 92.287
334.340 58.527 45.615
353.500 59.557 -3.788
373.750 60.591 -56.036
395.160 61.632 -111.326
417.800 62.680 -169.868
441.730 63.737 128.142
467.040 64.800 62.419
493.800 65.863 -7.275
522.090 66.916 -81.193
552.000 67.944 -159.586
583.620 68.932 117.329
617.050 69.870 29.338
652.400 70.749 -63.788
689.780 71.562 -162.278
729.290 72.306 93.663
771.080 72.978 -16.308
815.250 73.576 -132.419
861.950 74.098 104.953
911.330 74.539 -24.584
963.540 74.890 -161.485
1018.740 75.123 53.819
1077.110 75.188 -99.080
1138.810 75.047 99.882
1204.050 74.704 -69.411
1273.030 74.256 112.823
1345.960 73.735 -74.300
1423.070 73.094 88.307
1504.590 72.287 -119.861
1590.790 71.208 21.518
1681.920 70.056 152.302
1778.280 68.983 -89.274
1880.150 67.823 14.719
1987.870 66.328 103.531
2101.750 64.211 177.169
2222.150 61.788 -125.778
2349.460 57.697 -90.707
2484.060 47.697 -97.309
2626.360 52.583 140.959
2776.820 60.640 109.928
2935.900 64.932 63.965
3104.100 67.831 -5.028
3281.930 69.676 -96.635
3469.940 70.756 146.074
3668.730 71.237 0.793
3878.910 71.355 -170.012
4101.130 70.317 -11.915
4336.070 69.062 116.580
4584.480 67.325 -146.322
4847.120 64.941 -83.715
5124.810 60.386 -52.726
5418.400 53.516 -54.546
5728.810 53.103 -31.684
6057.010 56.520 -107.813
6404.000 59.383 117.464
6770.880 59.345 -81.588
7158.770 60.546 12.925
7568.890 53.570 82.291
8002.500 53.599 80.343
8460.950 52.964 -29.850
8945.670 44.867 87.575
9458.160 45.346 144.230
10000.000 46.262 -83.802
