# Freq(Hz) SPL(dB) Phase (degrees)
10.000 -3.368 154.644
10.570 -2.405 153.199
11.180 -1.430 151.653
11.820 -0.463 150.030
12.500 0.509 148.306
13.210 1.469 146.506
13.970 2.441 144.579
14.770 3.408 142.551
15.620 4.381 140.396
16.510 5.344 138.140
17.460 6.316 135.731
18.460 7.284 133.196
19.510 8.245 130.533
20.630 9.215 127.694
21.810 10.182 124.702
23.060 11.151 121.533
24.380 12.119 118.186
25.780 13.089 114.636
27.260 14.060 110.884
28.820 15.028 106.928
30.470 15.996 102.745
32.220 16.967 98.307
34.060 17.933 93.642
36.010 18.902 88.698
38.080 19.875 83.449
40.260 20.844 77.921
42.560 21.811 72.089
45.000 22.782 65.901
47.580 23.753 59.359
50.310 24.725 52.436
53.190 25.695 45.132
56.230 26.665 37.422
59.460 27.639 29.230
62.860 28.610 20.607
66.460 29.583 11.475
70.270 30.557 1.810
74.300 31.533 -8.413
78.550 32.507 -19.196
83.050 33.483 -30.615
87.810 34.461 -42.694
92.840 35.439 -55.461
98.160 36.419 -68.967
103.780 37.400 -83.237
109.730 38.384 -98.348
116.020 39.369 -114.328
122.660 40.355 -131.202
129.690 41.345 -149.075
137.120 42.336 -167.973
144.970 43.330 172.051
153.280 44.327 150.892
162.060 45.327 128.522
171.340 46.330 104.861
181.160 47.336 79.802
191.540 48.346 53.292
202.510 49.358 25.249
214.110 50.373 -4.433
226.380 51.391 -35.862
239.350 52.411 -69.117
253.060 53.432 -104.303
267.560 54.454 -141.552
282.890 55.476 179.034
299.090 56.498 137.353
316.230 57.522 93.224
334.340 58.545 46.571
353.500 59.571 -2.817
373.750 60.600 -55.053
395.160 61.635 -110.335
417.800 62.676 -168.877
441.730 63.724 129.123
467.040 64.775 63.374
493.800 65.822 -6.366
522.090 66.852 -80.352
552.000 67.849 -158.831
583.620 68.795 117.993
617.050 69.677 29.925
652.400 70.486 -63.246
689.780 71.215 -161.737
729.290 71.860 94.256
771.080 72.417 -15.608
815.250 72.879 -131.548
861.950 73.237 106.090
911.330 73.479 -23.016
963.540 73.594 -159.228
1018.740 73.555 57.123
1077.110 73.314 -94.297
1138.810 72.821 106.676
1204.050 72.081 -59.764
1273.030 71.188 126.669
1345.960 70.270 -54.254
1423.070 69.431 116.935
1504.590 68.847 -80.714
1590.790 68.646 72.192
1681.920 69.066 -147.334
1778.280 69.907 -22.725
1880.150 70.767 84.954
1987.870 71.443 176.433
2101.750 71.987 -107.909
2222.150 72.476 -50.017
2349.460 72.713 -9.821
2484.060 72.854 12.392
2626.360 72.984 14.661
2776.820 72.986 -4.940
2935.900 72.746 -47.409
3104.100 72.207 -115.594
3281.930 71.074 150.015
3469.940 69.042 27.740
3668.730 65.813 -124.950
3878.910 60.066 41.814
4101.130 54.939 153.590
4336.070 59.636 -151.074
4584.480 62.038 -74.024
4847.120 62.072 -32.044
5124.810 63.400 -29.457
5418.400 62.150 -76.289
5728.810 60.181 -176.524
6057.010 60.587 35.486
6404.000 63.732 -148.834
6770.880 62.571 -8.420
7158.770 60.268 87.180
7568.890 55.212 113.427
8002.500 51.500 -141.697
8460.950 48.450 -173.806
8945.670 55.241 41.418
9458.160 48.467 -167.946
10000.000 49.362 155.308
