# Freq(Hz) SPL(dB) Phase (degrees)
10.000 -2.443 157.135
10.570 -1.481 155.832
11.180 -0.506 154.437
11.820 0.460 152.974
12.500 1.432 151.420
13.210 2.391 149.797
13.970 3.362 148.059
14.770 4.329 146.231
15.620 5.300 144.288
16.510 6.262 142.253
17.460 7.233 140.082
18.460 8.200 137.796
19.510 9.160 135.396
20.630 10.129 132.836
21.810 11.094 130.139
23.060 12.061 127.283
24.380 13.026 124.266
25.780 13.994 121.067
27.260 14.962 117.685
28.820 15.927 114.121
30.470 16.892 110.352
32.220 17.859 106.354
34.060 18.821 102.151
36.010 19.785 97.697
38.080 20.753 92.970
40.260 21.716 87.993
42.560 22.676 82.742
45.000 23.640 77.172
47.580 24.603 71.285
50.310 25.566 65.056
53.190 26.526 58.486
56.230 27.485 51.554
59.460 28.447 44.190
62.860 29.403 36.441
66.460 30.361 28.239
70.270 31.318 19.562
74.300 32.275 10.388
78.550 33.228 0.718
83.050 34.181 -9.516
87.810 35.133 -20.334
92.840 36.083 -31.760
98.160 37.032 -43.836
103.780 37.978 -56.583
109.730 38.924 -70.068
116.020 39.868 -84.311
122.660 40.809 -99.332
129.690 41.750 -115.219
137.120 42.689 -131.992
144.970 43.625 -149.692
153.280 44.562 -168.405
162.060 45.497 171.849
171.340 46.432 151.009
181.160 47.368 128.988
191.540 48.306 105.746
202.510 49.246 81.220
214.110 50.190 55.322
226.380 51.142 27.966
239.350 52.104 -0.920
253.060 53.077 -31.430
267.560 54.065 -63.688
282.890 55.073 -97.803
299.090 56.100 -133.893
316.230 57.152 -172.147
334.340 58.226 147.324
353.500 59.322 104.296
373.750 60.436 58.639
395.160 61.562 10.158
417.800 62.693 -41.325
441.730 63.821 -95.948
467.040 64.940 -153.900
493.800 66.044 144.686
522.090 67.132 79.649
552.000 68.202 10.785
583.620 69.250 -62.127
617.050 70.262 -139.309
652.400 71.223 139.081
689.780 72.130 53.006
729.290 73.012 -37.547
771.080 73.925 -132.927
815.250 74.912 126.293
861.950 75.960 19.307
911.330 77.020 -94.501
963.540 78.038 144.471
1018.740 78.965 15.819
1077.110 79.723 -120.823
1138.810 80.212 94.750
1204.050 80.428 -56.950
1273.030 80.484 144.411
1345.960 80.511 -21.708
1423.070 80.588 163.793
1504.590 80.741 -20.287
1590.790 80.899 144.878
1681.920 80.937 -60.979
1778.280 80.865 82.178
1880.150 80.733 -145.983
1987.870 80.609 -25.857
2101.750 80.646 81.408
2222.150 80.817 174.037
2349.460 81.040 -109.204
2484.060 81.193 -48.782
2626.360 81.344 -4.719
2776.820 81.694 21.674
2935.900 82.207 27.325
3104.100 82.487 11.192
3281.930 82.863 -25.967
3469.940 83.030 -87.451
3668.730 82.800 -173.046
3878.910 82.409 78.902
4101.130 82.116 -56.247
4336.070 81.721 141.567
4584.480 81.385 -49.294
4847.120 81.107 87.477
5124.810 80.558 -168.374
5418.400 80.385 -98.168
5728.810 80.299 -66.690
6057.010 79.948 -77.368
6404.000 79.127 -130.159
6770.880 78.165 135.847
7158.770 77.212 -1.501
7568.890 75.679 175.410
8002.500 75.829 -68.476
8460.950 75.287 -5.404
8945.670 73.731 -1.732
9458.160 71.148 -57.351
10000.000 70.236 -177.312
