# Freq(Hz) SPL(dB) Phase (degrees)
10.000 -0.813 160.908
10.570 0.149 159.820
11.180 1.124 158.656
11.820 2.091 157.434
12.500 3.063 156.137
13.210 4.022 154.782
13.970 4.994 153.332
14.770 5.961 151.805
15.620 6.933 150.183
16.510 7.896 148.485
17.460 8.868 146.673
18.460 9.835 144.765
19.510 10.796 142.762
20.630 11.765 140.626
21.810 12.731 138.376
23.060 13.699 135.992
24.380 14.666 133.476
25.780 15.636 130.807
27.260 16.606 127.986
28.820 17.572 125.014
30.470 18.539 121.870
32.220 19.509 118.537
34.060 20.474 115.033
36.010 21.441 111.321
38.080 22.412 107.381
40.260 23.380 103.234
42.560 24.345 98.860
45.000 25.314 94.221
47.580 26.283 89.319
50.310 27.254 84.133
53.190 28.222 78.666
56.230 29.190 72.898
59.460 30.163 66.772
62.860 31.132 60.328
66.460 32.104 53.509
70.270 33.078 46.296
74.300 34.054 38.671
78.550 35.030 30.634
83.050 36.009 22.129
87.810 36.992 13.136
92.840 37.978 3.637
98.160 38.968 -6.409
103.780 39.962 -17.022
109.730 40.963 -28.260
116.020 41.971 -40.148
122.660 42.984 -52.710
129.690 44.008 -66.027
137.120 45.040 -80.129
144.970 46.082 -95.064
153.280 47.137 -110.922
162.060 48.201 -127.737
171.340 49.276 -145.584
181.160 50.362 -164.556
191.540 51.456 175.288
202.510 52.557 153.874
214.110 53.661 131.110
226.380 54.765 106.908
239.350 55.864 81.204
253.060 56.953 53.926
267.560 58.028 24.990
282.890 59.083 -5.657
299.090 60.115 -38.054
316.230 61.122 -72.290
334.340 62.105 -108.365
353.500 63.070 -146.374
373.750 64.025 173.658
395.160 64.985 131.619
417.800 65.968 87.352
441.730 66.993 40.647
467.040 68.070 -8.842
493.800 69.197 -61.470
522.090 70.347 -117.592
552.000 71.483 -177.478
583.620 72.557 118.760
617.050 73.537 51.158
652.400 74.413 -20.147
689.780 75.219 -95.038
729.290 76.023 -173.665
771.080 76.873 103.246
815.250 77.722 14.971
861.950 78.463 -78.702
911.330 79.065 -177.259
963.540 79.663 79.595
1018.740 80.436 -29.435
1077.110 81.259 -146.666
1138.810 81.736 87.581
1204.050 81.678 -44.481
1273.030 81.332 178.908
1345.960 81.034 36.885
1423.070 80.815 -112.381
1504.590 80.652 90.311
1590.790 80.423 -76.819
1681.920 79.663 107.141
1778.280 78.671 -72.609
1880.150 78.704 100.414
1987.870 79.018 -102.642
2101.750 78.795 43.798
2222.150 78.997 -177.723
2349.460 80.198 -53.956
2484.060 81.324 48.742
2626.360 81.837 138.870
2776.820 83.058 -147.724
2935.900 83.734 -96.140
3104.100 83.739 -58.162
3281.930 84.467 -39.519
3469.940 84.329 -44.511
3668.730 84.037 -65.574
3878.910 83.298 -111.627
4101.130 82.147 -172.066
4336.070 81.309 97.526
4584.480 79.620 -10.527
4847.120 76.943 -142.454
5124.810 77.168 74.403
5418.400 79.093 -106.316
5728.810 81.067 21.837
6057.010 82.574 108.998
6404.000 82.125 162.591
6770.880 80.440 -178.118
7158.770 78.710 165.590
7568.890 76.898 112.536
8002.500 75.219 9.157
8460.950 73.207 -121.385
8945.670 74.167 52.078
9458.160 74.832 156.309
10000.000 73.192 -159.411
