# Freq(Hz) SPL(dB) Phase (degrees)
10.000 -1.712 158.917
10.570 -0.749 157.715
11.180 0.225 156.430
11.820 1.192 155.081
12.500 2.163 153.648
13.210 3.123 152.151
13.970 4.094 150.550
14.770 5.061 148.864
15.620 6.032 147.073
16.510 6.994 145.197
17.460 7.966 143.195
18.460 8.932 141.089
19.510 9.893 138.876
20.630 10.861 136.517
21.810 11.827 134.031
23.060 12.794 131.399
24.380 13.760 128.619
25.780 14.728 125.671
27.260 15.696 122.555
28.820 16.662 119.271
30.470 17.627 115.798
32.220 18.595 112.115
34.060 19.558 108.244
36.010 20.522 104.143
38.080 21.490 99.790
40.260 22.455 95.207
42.560 23.416 90.373
45.000 24.381 85.247
47.580 25.346 79.829
50.310 26.311 74.099
53.190 27.273 68.057
56.230 28.234 61.682
59.460 29.199 54.913
62.860 30.159 47.792
66.460 31.121 40.258
70.270 32.083 32.290
74.300 33.046 23.869
78.550 34.006 14.996
83.050 34.967 5.610
87.810 35.929 -4.309
92.840 36.892 -14.778
98.160 37.855 -25.839
103.780 38.819 -37.510
109.730 39.786 -49.852
116.020 40.755 -62.883
122.660 41.726 -76.623
129.690 42.702 -91.154
137.120 43.684 -106.497
144.970 44.671 -122.693
153.280 45.668 -139.828
162.060 46.675 -157.927
171.340 47.693 -177.059
181.160 48.725 162.685
191.540 49.773 141.248
202.510 50.838 118.551
214.110 51.921 94.489
226.380 53.025 68.954
239.350 54.148 41.855
253.060 55.289 13.079
267.560 56.445 -17.509
282.890 57.614 -50.016
299.090 58.789 -84.545
316.230 59.966 -121.250
334.340 61.136 -160.187
353.500 62.296 158.497
373.750 63.438 114.763
395.160 64.562 68.524
417.800 65.668 19.711
441.730 66.765 -31.713
467.040 67.872 -85.867
493.800 69.019 -142.893
522.090 70.238 156.926
552.000 71.554 93.131
583.620 72.964 25.173
617.050 74.437 -47.477
652.400 75.920 -125.223
689.780 77.360 151.703
729.290 78.710 63.225
771.080 79.934 -30.747
815.250 81.015 -130.126
861.950 81.954 125.098
911.330 82.781 14.904
963.540 83.555 -100.921
1018.740 84.333 137.041
1077.110 85.115 7.842
1138.810 85.816 -129.209
1204.050 86.337 85.845
1273.030 86.667 -66.902
1345.960 86.840 132.560
1423.070 86.918 -36.059
1504.590 86.971 146.454
1590.790 86.946 -40.927
1681.920 86.763 121.653
1778.280 86.465 -85.872
1880.150 86.142 56.025
1987.870 85.848 -174.039
2101.750 85.449 -57.189
2222.150 84.843 46.826
2349.460 84.167 138.459
2484.060 83.646 -143.805
2626.360 83.138 -81.774
2776.820 82.671 -34.488
2935.900 82.681 -3.860
3104.100 83.110 6.673
3281.930 83.849 -6.094
3469.940 84.388 -42.580
3668.730 84.773 -103.305
3878.910 84.846 172.124
4101.130 84.592 62.204
4336.070 84.261 -72.389
4584.480 84.040 124.471
4847.120 83.593 -67.203
5124.810 83.226 69.935
5418.400 82.777 175.522
5728.810 82.598 -112.669
6057.010 82.920 -79.698
6404.000 83.265 -89.707
6770.880 83.090 -143.641
7158.770 82.638 118.640
7568.890 81.478 -24.369
8002.500 80.791 146.672
8460.950 79.957 -91.939
8945.670 79.625 -27.138
9458.160 78.811 -23.438
10000.000 78.226 -79.147
