# Freq(Hz) SPL(dB) Phase (degrees)
10.000 -3.181 155.170
10.570 -2.218 153.755
11.180 -1.243 152.241
11.820 -0.276 150.652
12.500 0.696 148.963
13.210 1.655 147.201
13.970 2.627 145.314
14.770 3.595 143.328
15.620 4.567 141.217
16.510 5.529 139.008
17.460 6.501 136.649
18.460 7.469 134.166
19.510 8.430 131.559
20.630 9.400 128.779
21.810 10.366 125.849
23.060 11.335 122.746
24.380 12.302 119.468
25.780 13.272 115.992
27.260 14.242 112.318
28.820 15.209 108.445
30.470 16.176 104.348
32.220 17.147 100.003
34.060 18.112 95.434
36.010 19.080 90.593
38.080 20.051 85.453
40.260 21.019 80.041
42.560 21.985 74.330
45.000 22.954 68.271
47.580 23.923 61.865
50.310 24.893 55.087
53.190 25.861 47.935
56.230 26.828 40.387
59.460 27.800 32.366
62.860 28.767 23.923
66.460 29.736 14.983
70.270 30.707 5.521
74.300 31.678 -4.488
78.550 32.647 -15.044
83.050 33.617 -26.222
87.810 34.589 -38.047
92.840 35.560 -50.544
98.160 36.533 -63.764
103.780 37.505 -77.732
109.730 38.479 -92.522
116.020 39.454 -108.162
122.660 40.428 -124.677
129.690 41.404 -142.168
137.120 42.381 -160.661
144.970 43.358 179.792
153.280 44.337 159.088
162.060 45.317 137.200
171.340 46.296 114.050
181.160 47.277 89.536
191.540 48.258 63.602
202.510 49.237 36.172
214.110 50.215 7.141
226.380 51.192 -23.593
239.350 52.165 -56.108
253.060 53.133 -90.504
267.560 54.096 -126.905
282.890 55.051 -165.409
299.090 55.998 153.890
316.230 56.936 110.821
334.340 57.863 65.315
353.500 58.783 17.171
373.750 59.693 -33.716
395.160 60.594 -87.535
417.800 61.484 -144.490
441.730 62.359 155.233
467.040 63.209 91.374
493.800 64.018 23.746
522.090 64.764 -47.801
552.000 65.427 -123.348
583.620 65.999 157.120
617.050 66.494 73.630
652.400 66.953 -13.893
689.780 67.428 -105.708
729.290 67.964 157.748
771.080 68.584 55.806
815.250 69.286 -52.070
861.950 70.058 -166.498
911.330 70.886 71.911
963.540 71.737 -57.522
1018.740 72.558 164.505
1077.110 73.240 17.360
1138.810 73.648 -139.035
1204.050 73.693 55.704
1273.030 73.386 -117.949
1345.960 72.774 60.131
1423.070 71.928 -129.928
1504.590 70.949 31.852
1590.790 70.008 -174.752
1681.920 69.361 -30.680
1778.280 69.309 101.677
1880.150 69.714 -142.443
1987.870 70.103 -45.388
2101.750 69.943 33.516
2222.150 69.123 95.577
2349.460 67.505 141.041
2484.060 64.821 170.542
2626.360 60.353 -167.887
2776.820 57.731 -133.856
2935.900 60.822 -139.625
3104.100 63.031 166.267
3281.930 63.323 76.780
3469.940 61.457 -47.337
3668.730 56.439 159.759
3878.910 48.123 -1.481
4101.130 54.069 -111.157
4336.070 60.743 5.715
4584.480 64.093 97.487
4847.120 64.252 161.267
5124.810 61.729 -144.658
5418.400 63.677 -115.146
5728.810 65.597 -147.020
6057.010 63.094 126.191
6404.000 61.185 46.615
6770.880 62.868 -122.630
7158.770 60.424 21.042
7568.890 62.710 162.360
8002.500 57.887 179.438
8460.950 50.618 153.722
8945.670 55.873 90.079
9458.160 46.147 14.224
10000.000 48.668 112.552
