# Freq(Hz) SPL(dB) Phase (degrees)
10.000 -0.735 161.070
10.570 0.228 159.991
11.180 1.203 158.837
11.820 2.170 157.626
12.500 3.142 156.339
13.210 4.101 154.996
13.970 5.073 153.558
14.770 6.041 152.044
15.620 7.013 150.436
16.510 7.976 148.753
17.460 8.948 146.956
18.460 9.916 145.064
19.510 10.877 143.079
20.630 11.847 140.961
21.810 12.814 138.730
23.060 13.782 136.367
24.380 14.750 133.872
25.780 15.720 131.226
27.260 16.691 128.429
28.820 17.658 125.482
30.470 18.626 122.366
32.220 19.598 119.061
34.060 20.564 115.588
36.010 21.532 111.907
38.080 22.505 108.002
40.260 23.474 103.891
42.560 24.442 99.555
45.000 25.413 94.957
47.580 26.385 90.097
50.310 27.358 84.958
53.190 28.330 79.539
56.230 29.301 73.822
59.460 30.279 67.751
62.860 31.253 61.364
66.460 32.230 54.606
70.270 33.210 47.459
74.300 34.194 39.903
78.550 35.177 31.939
83.050 36.165 23.511
87.810 37.158 14.601
92.840 38.155 5.188
98.160 39.158 -4.766
103.780 40.167 -15.282
109.730 41.185 -26.419
116.020 42.212 -38.202
122.660 43.247 -50.653
129.690 44.296 -63.858
137.120 45.357 -77.845
144.970 46.432 -92.665
153.280 47.523 -108.409
162.060 48.629 -125.114
171.340 49.751 -142.858
181.160 50.890 -161.741
191.540 52.043 178.177
202.510 53.209 156.815
214.110 54.385 134.074
226.380 55.568 109.860
239.350 56.752 84.104
253.060 57.932 56.727
267.560 59.103 27.640
282.890 60.260 -3.212
299.090 61.398 -35.872
316.230 62.515 -70.426
334.340 63.612 -106.871
353.500 64.695 -145.300
373.750 65.774 174.263
395.160 66.866 131.706
417.800 67.993 86.858
441.730 69.175 39.481
467.040 70.425 -10.813
493.800 71.736 -64.433
522.090 73.076 -121.777
552.000 74.391 176.877
583.620 75.626 111.477
617.050 76.746 42.147
652.400 77.749 -30.932
689.780 78.672 -107.666
729.290 79.569 171.836
771.080 80.491 87.110
815.250 81.455 -2.374
861.950 82.438 -97.212
911.330 83.400 162.228
963.540 84.324 55.766
1018.740 85.223 -56.955
1077.110 86.082 -176.642
1138.810 86.799 56.231
1204.050 87.278 -78.129
1273.030 87.550 140.706
1345.960 87.692 -7.521
1423.070 87.716 -163.319
1504.590 87.637 33.241
1590.790 87.562 -138.397
1681.920 87.505 40.597
1778.280 87.398 -150.434
1880.150 87.243 8.210
1987.870 87.073 155.341
2101.750 86.668 -69.929
2222.150 85.941 54.270
2349.460 85.297 167.844
2484.060 84.876 -90.963
2626.360 84.895 -4.328
2776.820 85.120 63.641
2935.900 84.938 113.026
3104.100 84.296 146.845
3281.930 83.812 166.682
3469.940 84.113 166.228
3668.730 84.371 141.213
3878.910 84.111 94.105
4101.130 84.010 27.668
4336.070 84.465 -66.423
4584.480 84.054 170.731
4847.120 83.476 27.305
5124.810 83.601 -144.089
5418.400 83.904 11.641
5728.810 84.614 138.874
6057.010 86.163 -137.741
6404.000 86.686 -91.096
6770.880 87.247 -84.835
7158.770 87.006 -120.630
7568.890 86.498 162.474
8002.500 85.875 42.427
8460.950 85.364 -121.720
8945.670 85.103 24.347
9458.160 84.863 116.086
10000.000 84.597 150.369
