# Freq(Hz) SPL(dB) Phase (degrees)
10.000 -0.522 161.508
10.570 0.441 160.455
11.180 1.416 159.327
11.820 2.383 158.144
12.500 3.355 156.887
13.210 4.315 155.575
13.970 5.287 154.170
14.770 6.255 152.692
15.620 7.227 151.121
16.510 8.190 149.477
17.460 9.162 147.721
18.460 10.130 145.874
19.510 11.092 143.934
20.630 12.062 141.865
21.810 13.029 139.686
23.060 13.998 137.377
24.380 14.966 134.940
25.780 15.937 132.355
27.260 16.907 129.623
28.820 17.876 126.744
30.470 18.844 123.700
32.220 19.816 120.472
34.060 20.783 117.079
36.010 21.752 113.483
38.080 22.726 109.668
40.260 23.696 105.652
42.560 24.665 101.416
45.000 25.637 96.923
47.580 26.611 92.175
50.310 27.586 87.154
53.190 28.559 81.858
56.230 29.533 76.271
59.460 30.512 70.338
62.860 31.489 64.096
66.460 32.470 57.490
70.270 33.454 50.502
74.300 34.441 43.114
78.550 35.428 35.325
83.050 36.421 27.080
87.810 37.420 18.359
92.840 38.423 9.144
98.160 39.433 -0.606
103.780 40.449 -10.911
109.730 41.475 -21.831
116.020 42.510 -33.391
122.660 43.555 -45.617
129.690 44.612 -58.593
137.120 45.683 -72.349
144.970 46.766 -86.937
153.280 47.865 -102.449
162.060 48.978 -118.922
171.340 50.104 -136.433
181.160 51.245 -155.079
191.540 52.397 -174.920
202.510 53.557 163.968
214.110 54.721 141.492
226.380 55.887 117.564
239.350 57.048 92.123
253.060 58.199 65.100
267.560 59.333 36.416
282.890 60.448 6.026
299.090 61.537 -26.101
316.230 62.601 -60.044
334.340 63.641 -95.793
353.500 64.666 -133.441
373.750 65.687 -173.016
395.160 66.720 145.355
417.800 67.786 101.486
441.730 68.898 55.137
467.040 70.061 5.949
493.800 71.261 -46.405
522.090 72.466 -102.193
552.000 73.637 -161.538
583.620 74.752 135.620
617.050 75.824 69.377
652.400 76.905 -0.385
689.780 78.041 -74.144
729.290 79.226 -152.549
771.080 80.403 123.837
815.250 81.509 34.884
861.950 82.510 -59.477
911.330 83.394 -159.380
963.540 84.133 95.027
1018.740 84.697 -16.222
1077.110 85.110 -132.845
1138.810 85.488 105.082
1204.050 85.912 -23.445
1273.030 86.334 -159.377
1345.960 86.709 56.873
1423.070 87.010 -95.364
1504.590 87.121 103.445
1590.790 86.958 -66.458
1681.920 86.525 115.508
1778.280 85.954 -70.218
1880.150 85.527 95.479
1987.870 85.210 -109.904
2101.750 84.808 32.915
2222.150 84.117 164.678
2349.460 83.491 -72.502
2484.060 83.467 38.476
2626.360 84.025 132.903
2776.820 84.506 -151.663
2935.900 84.609 -92.170
3104.100 85.023 -47.286
3281.930 85.806 -24.828
3469.940 85.932 -23.371
3668.730 85.934 -39.041
3878.910 86.281 -76.976
4101.130 86.284 -139.104
4336.070 86.304 139.520
4584.480 86.963 27.965
4847.120 86.898 -110.179
5124.810 87.427 81.772
5418.400 86.978 -118.543
5728.810 86.630 11.570
6057.010 85.219 107.961
6404.000 84.184 174.786
6770.880 82.862 -149.973
7158.770 82.318 -156.710
7568.890 82.945 158.529
8002.500 83.333 64.763
8460.950 83.855 -77.328
8945.670 84.389 87.976
9458.160 84.731 -161.214
10000.000 84.600 -106.870
