# Freq(Hz) SPL(dB) Phase (degrees)
10.000 -0.600 161.351
10.570 0.363 160.288
11.180 1.338 159.151
11.820 2.305 157.958
12.500 3.277 156.690
13.210 4.237 155.367
13.970 5.209 153.950
14.770 6.176 152.459
15.620 7.148 150.875
16.510 8.111 149.217
17.460 9.083 147.446
18.460 10.051 145.583
19.510 11.012 143.627
20.630 11.982 141.540
21.810 12.948 139.342
23.060 13.917 137.014
24.380 14.884 134.556
25.780 15.855 131.949
27.260 16.825 129.194
28.820 17.792 126.290
30.470 18.760 123.220
32.220 19.731 119.964
34.060 20.697 116.542
36.010 21.666 112.916
38.080 22.638 109.068
40.260 23.607 105.017
42.560 24.574 100.745
45.000 25.545 96.214
47.580 26.517 91.425
50.310 27.490 86.360
53.190 28.461 81.020
56.230 29.432 75.385
59.460 30.408 69.401
62.860 31.382 63.106
66.460 32.359 56.443
70.270 33.338 49.396
74.300 34.320 41.945
78.550 35.303 34.090
83.050 36.290 25.776
87.810 37.281 16.984
92.840 38.276 7.693
98.160 39.277 -2.136
103.780 40.284 -12.522
109.730 41.298 -23.527
116.020 42.321 -35.174
122.660 43.351 -47.489
129.690 44.393 -60.555
137.120 45.446 -74.401
144.970 46.509 -89.078
153.280 47.586 -104.677
162.060 48.675 -121.233
171.340 49.774 -138.822
181.160 50.886 -157.540
191.540 52.006 -177.442
202.510 53.131 161.395
214.110 54.259 138.882
226.380 55.385 114.932
239.350 56.504 89.487
253.060 57.611 62.478
267.560 58.700 33.828
282.890 59.767 3.490
299.090 60.807 -28.566
316.230 61.821 -62.422
334.340 62.809 -98.070
353.500 63.779 -135.601
373.750 64.740 -175.044
395.160 65.708 143.484
417.800 66.703 99.811
441.730 67.737 53.721
467.040 68.819 4.879
493.800 69.939 -47.025
522.090 71.073 -102.263
552.000 72.192 -161.006
583.620 73.274 136.707
617.050 74.322 70.866
652.400 75.365 1.329
689.780 76.431 -72.276
729.290 77.516 -150.497
771.080 78.562 126.093
815.250 79.481 37.409
861.950 80.217 -56.252
911.330 80.805 -154.430
963.540 81.376 102.833
1018.740 82.034 -5.542
1077.110 82.704 -120.950
1138.810 83.197 116.269
1204.050 83.447 -13.269
1273.030 83.458 -149.490
1345.960 83.203 67.986
1423.070 82.863 -79.686
1504.590 82.920 125.658
1590.790 83.098 -40.912
1681.920 82.658 141.936
1778.280 81.671 -41.911
1880.150 80.529 129.126
1987.870 80.115 -65.086
2101.750 80.584 85.282
2222.150 80.500 -137.335
2349.460 81.036 -8.376
2484.060 82.419 102.407
2626.360 83.426 -166.620
2776.820 84.061 -88.535
2935.900 85.370 -28.120
3104.100 86.258 8.936
3281.930 86.380 30.935
3469.940 87.019 33.142
3668.730 86.838 11.728
3878.910 86.373 -25.931
4101.130 85.874 -88.613
4336.070 85.176 -169.984
4584.480 84.376 78.069
4847.120 82.724 -51.650
5124.810 80.902 151.479
5418.400 80.604 -21.403
5728.810 81.993 130.807
6057.010 83.648 -127.818
6404.000 84.695 -64.918
6770.880 84.598 -39.337
7158.770 83.759 -51.936
7568.890 82.209 -107.800
8002.500 80.992 157.639
8460.950 78.143 22.582
8945.670 77.157 -147.718
9458.160 78.135 -19.241
10000.000 78.165 36.877
