# Freq(Hz) SPL(dB) Phase (degrees)
10.000 -0.557 161.437
10.570 0.406 160.380
11.180 1.381 159.248
11.820 2.348 158.060
12.500 3.320 156.799
13.210 4.280 155.481
13.970 5.252 154.071
14.770 6.220 152.587
15.620 7.192 151.010
16.510 8.155 149.360
17.460 9.127 147.597
18.460 10.095 145.743
19.510 11.057 143.796
20.630 12.027 141.719
21.810 12.994 139.531
23.060 13.963 137.214
24.380 14.931 134.767
25.780 15.901 132.173
27.260 16.872 129.430
28.820 17.840 126.540
30.470 18.809 123.484
32.220 19.781 120.244
34.060 20.747 116.838
36.010 21.717 113.229
38.080 22.690 109.399
40.260 23.660 105.367
42.560 24.629 101.115
45.000 25.601 96.606
47.580 26.575 91.840
50.310 27.549 86.799
53.190 28.523 81.484
56.230 29.496 75.876
59.460 30.475 69.921
62.860 31.452 63.656
66.460 32.432 57.025
70.270 33.415 50.011
74.300 34.402 42.596
78.550 35.389 34.779
83.050 36.382 26.505
87.810 37.379 17.755
92.840 38.382 8.508
98.160 39.391 -1.274
103.780 40.407 -11.613
109.730 41.432 -22.567
116.020 42.466 -34.163
122.660 43.510 -46.425
129.690 44.567 -59.436
137.120 45.637 -73.229
144.970 46.720 -87.854
153.280 47.819 -103.403
162.060 48.932 -119.913
171.340 50.060 -137.462
181.160 51.202 -156.148
191.540 52.356 -176.029
202.510 53.519 162.815
214.110 54.688 140.291
226.380 55.860 116.311
239.350 57.027 90.813
253.060 58.186 63.723
267.560 59.330 34.962
282.890 60.455 4.483
299.090 61.556 -27.746
316.230 62.633 -61.807
334.340 63.688 -97.690
353.500 64.727 -135.489
373.750 65.763 -175.232
395.160 66.812 142.956
417.800 67.895 98.887
441.730 69.027 52.318
467.040 70.213 2.879
493.800 71.439 -49.777
522.090 72.671 -105.944
552.000 73.866 -165.766
583.620 74.992 130.812
617.050 76.053 63.930
652.400 77.092 -6.425
689.780 78.165 -80.589
729.290 79.290 -159.144
771.080 80.435 117.279
815.250 81.546 28.414
861.950 82.587 -65.928
911.330 83.540 -165.941
963.540 84.378 88.164
1018.740 85.067 -23.746
1077.110 85.592 -141.622
1138.810 85.986 94.605
1204.050 86.303 -35.380
1273.030 86.577 -172.053
1345.960 86.836 44.056
1423.070 87.096 -107.836
1504.590 87.325 91.450
1590.790 87.432 -78.965
1681.920 87.234 100.957
1778.280 86.714 -87.616
1880.150 86.105 75.598
1987.870 85.517 -130.490
2101.750 85.120 13.180
2222.150 84.872 144.190
2349.460 84.554 -98.040
2484.060 84.037 7.387
2626.360 83.830 102.142
2776.820 84.487 179.628
2935.900 84.962 -124.763
3104.100 84.671 -85.172
3281.930 84.753 -59.345
3469.940 85.436 -56.803
3668.730 85.340 -77.263
3878.910 85.114 -113.693
4101.130 85.684 -174.709
4336.070 85.580 98.006
4584.480 85.800 -10.864
4847.120 86.384 -151.406
5124.810 86.394 39.529
5418.400 86.616 -158.833
5728.810 86.275 -31.916
6057.010 86.055 65.129
6404.000 85.360 125.514
6770.880 85.141 150.186
7158.770 84.361 136.191
7568.890 83.932 81.538
8002.500 83.433 -17.782
8460.950 83.427 -158.641
8945.670 84.002 7.445
9458.160 84.659 116.353
10000.000 85.102 167.252
