# Freq(Hz) SPL(dB) Phase (degrees)
10.000 -3.306 154.823
10.570 -2.342 153.388
11.180 -1.368 151.852
11.820 -0.401 150.241
12.500 0.571 148.529
13.210 1.531 146.742
13.970 2.503 144.828
14.770 3.470 142.814
15.620 4.442 140.675
16.510 5.405 138.434
17.460 6.377 136.042
18.460 7.345 133.525
19.510 8.306 130.881
20.630 9.276 128.062
21.810 10.242 125.091
23.060 11.211 121.944
24.380 12.178 118.621
25.780 13.148 115.096
27.260 14.118 111.370
28.820 15.086 107.443
30.470 16.053 103.289
32.220 17.024 98.883
34.060 17.989 94.251
36.010 18.957 89.341
38.080 19.928 84.130
40.260 20.896 78.641
42.560 21.862 72.850
45.000 22.832 66.707
47.580 23.801 60.211
50.310 24.772 53.338
53.190 25.740 46.087
56.230 26.707 38.432
59.460 27.680 30.299
62.860 28.648 21.738
66.460 29.617 12.673
70.270 30.588 3.079
74.300 31.560 -7.070
78.550 32.530 -17.774
83.050 33.501 -29.107
87.810 34.474 -41.097
92.840 35.446 -53.768
98.160 36.420 -67.172
103.780 37.393 -81.333
109.730 38.369 -96.328
116.020 39.345 -112.183
122.660 40.320 -128.925
129.690 41.298 -146.654
137.120 42.277 -165.398
144.970 43.256 174.791
153.280 44.237 153.810
162.060 45.219 131.633
171.340 46.202 108.182
181.160 47.186 83.352
191.540 48.170 57.091
202.510 49.155 29.321
214.110 50.139 -0.063
226.380 51.123 -31.162
239.350 52.106 -64.053
253.060 53.086 -98.839
267.560 54.065 -135.643
282.890 55.039 -174.566
299.090 56.010 144.296
316.230 56.978 100.768
334.340 57.942 54.778
353.500 58.904 6.122
373.750 59.864 -45.305
395.160 60.824 -99.692
417.800 61.783 -157.237
441.730 62.741 141.881
467.040 63.695 77.402
493.800 64.636 9.123
522.090 65.557 -63.165
552.000 66.445 -139.667
583.620 67.294 139.444
617.050 68.100 53.983
652.400 68.865 -36.274
689.780 69.589 -131.573
729.290 70.273 127.857
771.080 70.913 21.685
815.250 71.514 -90.271
861.950 72.085 151.644
911.330 72.633 27.041
963.540 73.159 -104.476
1018.740 73.671 116.736
1077.110 74.183 -29.860
1138.810 74.706 175.077
1204.050 75.157 11.117
1273.030 75.549 -162.246
1345.960 75.867 14.783
1423.070 76.152 -178.325
1504.590 76.412 -22.336
1590.790 76.588 121.859
1681.920 76.629 -105.815
1778.280 76.610 14.196
1880.150 76.571 121.059
1987.870 76.501 -146.414
2101.750 76.362 -68.818
2222.150 76.174 -6.996
2349.460 75.900 37.977
2484.060 75.498 65.555
2626.360 74.995 74.944
2776.820 74.345 65.787
2935.900 73.854 37.889
3104.100 73.703 -12.016
3281.930 73.848 -85.170
3469.940 74.233 172.678
3668.730 74.244 41.979
3878.910 73.907 -118.174
4101.130 72.808 54.558
4336.070 71.878 -161.148
4584.480 70.869 -47.857
4847.120 69.918 32.422
5124.810 69.283 76.632
5418.400 68.957 82.475
5728.810 68.786 43.612
6057.010 68.794 -45.129
6404.000 66.544 -179.435
6770.880 64.517 6.067
7158.770 62.643 140.443
7568.890 51.969 -76.154
8002.500 58.069 -105.611
8460.950 60.216 -146.100
8945.670 53.753 108.621
9458.160 60.571 -33.812
10000.000 50.223 101.129
