# Freq(Hz) SPL(dB) Phase (degrees)
10.000 -2.116 157.951
10.570 -1.153 156.695
11.180 -0.179 155.350
11.820 0.788 153.939
12.500 1.759 152.441
13.210 2.719 150.876
13.970 3.690 149.200
14.770 4.657 147.437
15.620 5.628 145.563
16.510 6.590 143.602
17.460 7.561 141.508
18.460 8.528 139.304
19.510 9.488 136.990
20.630 10.457 134.522
21.810 11.422 131.922
23.060 12.389 129.167
24.380 13.354 126.259
25.780 14.323 123.174
27.260 15.290 119.914
28.820 16.255 116.477
30.470 17.220 112.843
32.220 18.188 108.989
34.060 19.150 104.937
36.010 20.114 100.643
38.080 21.082 96.086
40.260 22.045 91.288
42.560 23.006 86.226
45.000 23.970 80.857
47.580 24.934 75.182
50.310 25.897 69.178
53.190 26.858 62.846
56.230 27.817 56.164
59.460 28.780 49.066
62.860 29.738 41.598
66.460 30.697 33.693
70.270 31.656 25.331
74.300 32.614 16.490
78.550 33.569 7.171
83.050 34.525 -2.692
87.810 35.481 -13.119
92.840 36.435 -24.131
98.160 37.388 -35.771
103.780 38.340 -48.061
109.730 39.293 -61.064
116.020 40.245 -74.801
122.660 41.195 -89.295
129.690 42.146 -104.631
137.120 43.097 -120.832
144.970 44.047 -137.940
153.280 45.000 -156.044
162.060 45.952 -175.167
171.340 46.906 164.624
181.160 47.861 143.240
191.540 48.818 120.633
202.510 49.777 96.735
214.110 50.736 71.453
226.380 51.698 44.697
239.350 52.660 16.397
253.060 53.623 -13.540
267.560 54.586 -45.226
282.890 55.547 -78.754
299.090 56.506 -114.215
316.230 57.462 -151.767
334.340 58.412 168.518
353.500 59.354 126.462
373.750 60.281 81.983
395.160 61.190 34.948
417.800 62.075 -14.751
441.730 62.932 -67.164
467.040 63.767 -122.379
493.800 64.597 179.557
522.090 65.451 118.509
552.000 66.369 54.167
583.620 67.374 -13.951
617.050 68.460 -86.434
652.400 69.588 -163.820
689.780 70.705 113.524
729.290 71.754 25.426
771.080 72.694 -68.291
815.250 73.483 -167.656
861.950 74.076 87.335
911.330 74.448 -22.955
963.540 74.675 -137.936
1018.740 74.984 102.294
1077.110 75.571 -24.240
1138.810 76.277 -160.106
1204.050 76.727 53.682
1273.030 76.585 -101.385
1345.960 75.778 97.201
1423.070 74.688 -67.561
1504.590 74.288 122.501
1590.790 74.442 -61.201
1681.920 73.915 100.908
1778.280 72.326 -103.640
1880.150 71.050 52.062
1987.870 71.750 -164.905
2101.750 72.385 -43.083
2222.150 72.769 67.209
2349.460 73.826 161.205
2484.060 74.625 -125.060
2626.360 75.135 -66.893
2776.820 75.676 -29.197
2935.900 75.282 -9.571
3104.100 75.284 -5.409
3281.930 75.071 -29.840
3469.940 73.283 -66.425
3668.730 72.853 -129.982
3878.910 69.155 155.260
4101.130 69.422 56.106
4336.070 68.659 -60.970
4584.480 70.177 137.339
4847.120 70.048 -55.651
5124.810 69.976 77.189
5418.400 67.642 -178.058
5728.810 66.185 -105.608
6057.010 67.145 -58.218
6404.000 67.817 -61.524
6770.880 68.512 -117.547
7158.770 67.490 137.019
7568.890 64.787 -12.576
8002.500 59.073 156.694
8460.950 57.946 -43.339
8945.670 61.535 2.525
9458.160 58.396 0.402
10000.000 56.465 -53.828
