# Freq(Hz) SPL(dB) Phase (degrees)
10.000 -3.338 154.731
10.570 -2.375 153.291
11.180 -1.400 151.750
11.820 -0.433 150.133
12.500 0.539 148.415
13.210 1.499 146.621
13.970 2.471 144.701
14.770 3.438 142.680
15.620 4.411 140.532
16.510 5.373 138.283
17.460 6.345 135.883
18.460 7.313 133.356
19.510 8.274 130.703
20.630 9.244 127.874
21.810 10.211 124.892
23.060 11.180 121.734
24.380 12.147 118.399
25.780 13.117 114.861
27.260 14.088 111.122
28.820 15.055 107.180
30.470 16.023 103.011
32.220 16.994 98.589
34.060 17.959 93.940
36.010 18.927 89.012
38.080 19.899 83.782
40.260 20.868 78.273
42.560 21.834 72.462
45.000 22.804 66.296
47.580 23.774 59.776
50.310 24.745 52.878
53.190 25.714 45.600
56.230 26.682 37.917
59.460 27.655 29.754
62.860 28.624 21.162
66.460 29.595 12.063
70.270 30.567 2.433
74.300 31.540 -7.753
78.550 32.511 -18.497
83.050 33.484 -29.873
87.810 34.459 -41.908
92.840 35.433 -54.627
98.160 36.409 -68.081
103.780 37.385 -82.296
109.730 38.363 -97.348
116.020 39.342 -113.265
122.660 40.321 -130.071
129.690 41.303 -147.870
137.120 42.286 -166.688
144.970 43.270 173.422
153.280 44.257 152.357
162.060 45.245 130.089
171.340 46.234 106.540
181.160 47.226 81.605
191.540 48.219 55.231
202.510 49.213 27.338
214.110 50.208 -2.177
226.380 51.204 -33.420
239.350 52.200 -66.467
253.060 53.195 -101.423
267.560 54.188 -138.413
282.890 55.181 -177.539
299.090 56.170 141.101
316.230 57.158 97.329
334.340 58.145 51.072
353.500 59.131 2.123
373.750 60.118 -49.625
395.160 61.106 -104.366
417.800 62.097 -162.300
441.730 63.091 136.386
467.040 64.083 71.423
493.800 65.067 2.595
522.090 66.034 -70.324
552.000 66.972 -147.560
583.620 67.869 130.695
617.050 68.718 44.244
652.400 69.516 -47.136
689.780 70.260 -143.680
729.290 70.946 114.402
771.080 71.573 6.783
815.250 72.140 -106.725
861.950 72.650 133.538
911.330 73.106 7.202
963.540 73.500 -126.117
1018.740 73.822 93.297
1077.110 74.073 -54.865
1138.810 74.296 149.110
1204.050 74.465 -15.302
1273.030 74.639 171.169
1345.960 74.774 -11.991
1423.070 74.882 154.814
1504.590 74.993 -49.059
1590.790 75.104 95.441
1681.920 75.145 -132.337
1778.280 75.127 -12.829
1880.150 75.084 93.491
1987.870 75.045 -174.649
2101.750 74.938 -97.893
2222.150 74.811 -36.855
2349.460 74.743 7.081
2484.060 74.606 32.405
2626.360 74.393 38.550
2776.820 74.064 23.914
2935.900 73.530 -12.066
3104.100 72.722 -70.419
3281.930 71.617 -151.455
3469.940 70.455 104.911
3668.730 68.996 -23.533
3878.910 68.223 -179.475
4101.130 66.983 -5.502
4336.070 66.276 140.262
4584.480 64.741 -109.384
4847.120 63.394 -36.859
5124.810 61.191 4.297
5418.400 58.360 -3.106
5728.810 49.183 -61.644
6057.010 52.786 -13.808
6404.000 57.799 -139.932
6770.880 59.975 17.125
7158.770 57.651 139.477
7568.890 49.970 -124.017
8002.500 51.647 -109.525
8460.950 56.439 -164.030
8945.670 60.211 72.428
9458.160 59.233 -61.116
10000.000 56.324 27.667
