# Freq(Hz) SPL(dB) Phase (degrees)
10.000 -1.113 160.267
10.570 -0.150 159.142
11.180 0.825 157.939
11.820 1.792 156.677
12.500 2.763 155.335
13.210 3.723 153.935
13.970 4.695 152.436
14.770 5.662 150.858
15.620 6.634 149.182
16.510 7.596 147.427
17.460 8.568 145.554
18.460 9.535 143.582
19.510 10.496 141.512
20.630 11.466 139.304
21.810 12.432 136.978
23.060 13.400 134.515
24.380 14.366 131.914
25.780 15.336 129.155
27.260 16.306 126.240
28.820 17.272 123.167
30.470 18.239 119.919
32.220 19.209 116.473
34.060 20.173 112.852
36.010 21.140 109.016
38.080 22.111 104.944
40.260 23.078 100.658
42.560 24.043 96.138
45.000 25.012 91.345
47.580 25.980 86.279
50.310 26.950 80.921
53.190 27.918 75.272
56.230 28.885 69.313
59.460 29.857 62.985
62.860 30.825 56.329
66.460 31.796 49.287
70.270 32.769 41.840
74.300 33.743 33.969
78.550 34.717 25.676
83.050 35.694 16.902
87.810 36.675 7.629
92.840 37.658 -2.161
98.160 38.645 -12.509
103.780 39.636 -23.433
109.730 40.635 -34.992
116.020 41.640 -47.208
122.660 42.651 -60.104
129.690 43.674 -73.761
137.120 44.707 -88.205
144.970 45.752 -103.485
153.280 46.813 -119.688
162.060 47.888 -136.851
171.340 48.980 -155.048
181.160 50.090 -174.378
191.540 51.217 165.095
202.510 52.362 143.289
214.110 53.522 120.097
226.380 54.697 95.417
239.350 55.881 69.167
253.060 57.071 41.254
267.560 58.262 11.569
282.890 59.448 -19.961
299.090 60.623 -53.398
316.230 61.785 -88.850
334.340 62.928 -126.327
353.500 64.054 -165.928
373.750 65.170 152.336
395.160 66.285 108.385
417.800 67.421 62.113
441.730 68.602 13.367
467.040 69.856 -38.172
493.800 71.201 -92.908
522.090 72.630 -151.353
552.000 74.107 145.996
583.620 75.570 78.804
617.050 76.955 6.947
652.400 78.211 -69.535
689.780 79.315 -150.489
729.290 80.272 124.288
771.080 81.120 34.816
815.250 81.921 -59.013
861.950 82.730 -157.745
911.330 83.548 97.894
963.540 84.327 -12.656
1018.740 85.010 -129.634
1077.110 85.564 106.894
1138.810 85.997 -23.047
1204.050 86.348 -159.646
1273.030 86.663 56.561
1345.960 86.928 -95.023
1423.070 87.143 105.391
1504.590 87.391 -62.742
1590.790 87.677 119.027
1681.920 87.808 -70.082
1778.280 87.654 90.345
1880.150 87.296 -118.884
1987.870 86.974 21.271
2101.750 86.562 148.554
2222.150 85.786 -95.892
2349.460 84.980 9.141
2484.060 84.449 101.593
2626.360 84.222 179.362
2776.820 84.226 -119.767
2935.900 84.384 -76.455
3104.100 84.688 -53.323
3281.930 84.596 -50.374
3469.940 84.526 -64.501
3668.730 84.817 -100.780
3878.910 85.397 -160.428
4101.130 85.944 111.707
4336.070 86.066 -3.230
4584.480 85.706 -143.577
4847.120 85.070 50.034
5124.810 84.979 -144.649
5418.400 84.973 -13.370
5728.810 84.414 81.693
6057.010 83.239 147.124
6404.000 82.534 -179.062
6770.880 82.789 171.026
7158.770 82.940 118.230
7568.890 83.432 21.672
8002.500 83.935 -125.151
8460.950 83.518 35.271
8945.670 83.463 149.713
9458.160 83.386 -154.724
10000.000 83.153 -156.683
