# Freq(Hz) SPL(dB) Phase (degrees)
10.000 -2.660 156.577
10.570 -1.697 155.242
11.180 -0.722 153.814
11.820 0.244 152.315
12.500 1.216 150.723
13.210 2.175 149.060
13.970 3.146 147.280
14.770 4.113 145.407
15.620 5.085 143.416
16.510 6.047 141.332
17.460 7.018 139.107
18.460 7.985 136.766
19.510 8.945 134.307
20.630 9.913 131.685
21.810 10.879 128.922
23.060 11.846 125.995
24.380 12.811 122.904
25.780 13.780 119.627
27.260 14.748 116.162
28.820 15.713 112.510
30.470 16.678 108.647
32.220 17.646 104.551
34.060 18.608 100.244
36.010 19.572 95.680
38.080 20.540 90.836
40.260 21.504 85.735
42.560 22.465 80.353
45.000 23.429 74.645
47.580 24.393 68.610
50.310 25.357 62.225
53.190 26.318 55.490
56.230 27.277 48.382
59.460 28.239 40.832
62.860 29.197 32.885
66.460 30.156 24.474
70.270 31.114 15.574
74.300 32.072 6.162
78.550 33.026 -3.760
83.050 33.980 -14.262
87.810 34.933 -25.366
92.840 35.885 -37.096
98.160 36.835 -49.496
103.780 37.782 -62.590
109.730 38.729 -76.444
116.020 39.673 -91.082
122.660 40.614 -106.524
129.690 41.554 -122.862
137.120 42.491 -140.117
144.970 43.425 -158.331
153.280 44.358 -177.596
162.060 45.287 162.070
171.340 46.213 140.602
181.160 47.138 117.911
191.540 48.059 93.958
202.510 48.979 68.679
214.110 49.898 41.989
226.380 50.816 13.804
239.350 51.737 -15.939
253.060 52.660 -47.326
267.560 53.590 -80.469
282.890 54.530 -115.462
299.090 55.482 -152.402
316.230 56.453 168.531
334.340 57.444 127.244
353.500 58.459 83.516
373.750 59.499 37.209
395.160 60.564 -11.884
417.800 61.649 -63.972
441.730 62.751 -119.229
467.040 63.864 -177.888
493.800 64.984 119.873
522.090 66.108 53.840
552.000 67.233 -16.249
583.620 68.348 -90.686
617.050 69.430 -169.776
652.400 70.443 106.244
689.780 71.352 17.310
729.290 72.144 -76.465
771.080 72.847 -175.096
815.250 73.510 81.304
861.950 74.176 -27.731
911.330 74.864 -142.729
963.540 75.585 95.782
1018.740 76.354 -32.874
1077.110 77.131 -169.634
1138.810 77.797 44.920
1204.050 78.255 -109.160
1273.030 78.481 88.376
1345.960 78.509 -82.511
1423.070 78.365 97.950
1504.590 78.073 -90.402
1590.790 77.719 72.332
1681.920 77.448 -134.709
1778.280 77.289 7.099
1880.150 77.245 136.676
1987.870 77.221 -107.485
2101.750 77.091 -5.391
2222.150 76.851 83.049
2349.460 76.743 158.071
2484.060 77.060 -143.418
2626.360 77.482 -104.363
2776.820 77.772 -84.591
2935.900 77.997 -83.956
3104.100 78.596 -105.395
3281.930 78.686 -148.333
3469.940 78.550 143.783
3668.730 78.189 54.459
3878.910 78.168 -60.106
4101.130 77.873 156.264
4336.070 77.336 -13.484
4584.480 77.174 147.443
4847.120 76.815 -86.463
5124.810 76.107 9.059
5418.400 75.891 70.059
5728.810 75.666 90.775
6057.010 75.396 69.172
6404.000 74.573 6.122
6770.880 73.694 -98.627
7158.770 72.635 109.548
7568.890 72.502 -83.957
8002.500 71.514 15.230
8460.950 70.480 59.214
8945.670 69.204 44.074
9458.160 67.190 -27.191
10000.000 65.463 -163.832
