# Freq(Hz) SPL(dB) Phase (degrees)
10.000 -0.519 161.515
10.570 0.444 160.462
11.180 1.419 159.335
11.820 2.386 158.152
12.500 3.358 156.896
13.210 4.318 155.584
13.970 5.290 154.180
14.770 6.257 152.702
15.620 7.229 151.132
16.510 8.192 149.488
17.460 9.165 147.733
18.460 10.132 145.886
19.510 11.094 143.947
20.630 12.064 141.879
21.810 13.031 139.700
23.060 14.000 137.393
24.380 14.967 134.956
25.780 15.938 132.372
27.260 16.909 129.641
28.820 17.876 126.763
30.470 18.845 123.720
32.220 19.816 120.493
34.060 20.783 117.101
36.010 21.752 113.507
38.080 22.725 109.693
40.260 23.694 105.677
42.560 24.662 101.443
45.000 25.634 96.952
47.580 26.607 92.205
50.310 27.581 87.185
53.190 28.554 81.891
56.230 29.526 76.305
59.460 30.505 70.374
62.860 31.480 64.133
66.460 32.459 57.528
70.270 33.441 50.541
74.300 34.426 43.154
78.550 35.412 35.366
83.050 36.403 27.122
87.810 37.398 18.403
92.840 38.398 9.188
98.160 39.404 -0.561
103.780 40.416 -10.866
109.730 41.438 -21.786
116.020 42.468 -33.347
122.660 43.506 -45.573
129.690 44.557 -58.548
137.120 45.619 -72.304
144.970 46.692 -86.890
153.280 47.781 -102.399
162.060 48.881 -118.866
171.340 49.993 -136.367
181.160 51.118 -154.999
191.540 52.251 -174.819
202.510 53.390 164.098
214.110 54.531 141.663
226.380 55.672 117.789
239.350 56.804 92.419
253.060 57.924 65.484
267.560 59.025 36.910
282.890 60.104 6.653
299.090 61.155 -25.316
316.230 62.179 -59.075
334.340 63.178 -94.614
353.500 64.158 -132.023
373.750 65.131 -171.331
395.160 66.113 147.341
417.800 67.122 103.819
441.730 68.171 57.880
467.040 69.268 9.193
493.800 70.399 -42.536
522.090 71.543 -97.554
552.000 72.672 -155.990
583.620 73.775 142.145
617.050 74.873 76.804
652.400 76.004 7.704
689.780 77.185 -65.723
729.290 78.379 -144.084
771.080 79.500 132.194
815.250 80.468 43.207
861.950 81.247 -50.773
911.330 81.860 -149.486
963.540 82.370 107.092
1018.740 82.842 -1.317
1077.110 83.351 -115.250
1138.810 83.939 124.240
1204.050 84.529 -4.114
1273.030 84.893 -140.755
1345.960 84.904 75.268
1423.070 84.661 -74.993
1504.590 84.385 128.265
1590.790 84.195 -36.560
1681.920 84.014 149.037
1778.280 83.583 -35.778
1880.150 82.649 130.786
1987.870 81.566 -67.548
2101.750 81.433 86.303
2222.150 81.759 -135.829
2349.460 81.760 -10.837
2484.060 82.140 104.541
2626.360 83.700 -157.249
2776.820 84.932 -82.864
2935.900 85.344 -22.541
3104.100 86.409 22.456
3281.930 87.408 42.552
3469.940 87.458 44.488
3668.730 87.757 28.143
3878.910 87.453 -12.076
4101.130 87.222 -70.214
4336.070 87.037 -154.181
4584.480 86.578 98.533
4847.120 86.068 -38.262
5124.810 84.844 161.406
5418.400 83.669 -28.029
5728.810 82.498 121.710
6057.010 82.425 -123.774
6404.000 83.379 -48.176
6770.880 84.288 -14.818
7158.770 84.696 -22.714
7568.890 84.502 -77.279
8002.500 83.767 -173.921
8460.950 82.455 44.000
8945.670 80.524 -142.904
9458.160 78.648 -8.197
10000.000 78.367 66.331
