# Freq(Hz) SPL(dB) Phase (degrees)
10.000 -1.861 158.565
10.570 -0.899 157.344
11.180 0.076 156.037
11.820 1.042 154.665
12.500 2.014 153.208
13.210 2.973 151.687
13.970 3.944 150.058
14.770 4.911 148.344
15.620 5.883 146.523
16.510 6.844 144.616
17.460 7.816 142.581
18.460 8.782 140.439
19.510 9.742 138.189
20.630 10.711 135.790
21.810 11.676 133.263
23.060 12.643 130.585
24.380 13.609 127.759
25.780 14.577 124.761
27.260 15.545 121.592
28.820 16.510 118.252
30.470 17.475 114.720
32.220 18.442 110.974
34.060 19.404 107.036
36.010 20.369 102.864
38.080 21.336 98.436
40.260 22.300 93.773
42.560 23.261 88.855
45.000 24.225 83.639
47.580 25.188 78.125
50.310 26.152 72.293
53.190 27.113 66.142
56.230 28.072 59.652
59.460 29.036 52.759
62.860 29.994 45.506
66.460 30.954 37.831
70.270 31.913 29.712
74.300 32.873 21.129
78.550 33.829 12.083
83.050 34.786 2.511
87.810 35.744 -7.608
92.840 36.700 -18.293
98.160 37.656 -29.586
103.780 38.612 -41.508
109.730 39.569 -54.122
116.020 40.526 -67.447
122.660 41.483 -81.505
129.690 42.442 -96.380
137.120 43.402 -112.095
144.970 44.364 -128.692
153.280 45.330 -146.260
162.060 46.298 -164.822
171.340 47.270 175.555
181.160 48.247 154.778
191.540 49.227 132.801
202.510 50.212 109.550
214.110 51.200 84.933
226.380 52.193 58.855
239.350 53.188 31.245
253.060 54.183 2.010
267.560 55.179 -28.963
282.890 56.171 -61.764
299.090 57.158 -96.477
316.230 58.137 -133.250
334.340 59.104 -172.138
353.500 60.056 146.706
373.750 60.988 103.229
395.160 61.899 57.333
417.800 62.788 8.944
441.730 63.663 -41.975
467.040 64.544 -95.529
493.800 65.460 -151.848
522.090 66.448 148.776
552.000 67.538 85.843
583.620 68.724 18.730
617.050 69.962 -53.169
652.400 71.177 -130.287
689.780 72.283 147.228
729.290 73.213 59.533
771.080 73.930 -33.148
815.250 74.442 -130.418
861.950 74.802 128.026
911.330 75.145 22.312
963.540 75.683 -88.389
1018.740 76.491 153.566
1077.110 77.297 25.895
1138.810 77.650 -111.259
1204.050 77.288 104.317
1273.030 76.360 -44.054
1345.960 75.543 164.937
1423.070 75.486 6.327
1504.590 75.583 -166.359
1590.790 74.712 9.073
1681.920 72.850 -178.872
1778.280 71.696 -6.652
1880.150 72.129 152.341
1987.870 72.438 -66.004
2101.750 72.602 66.166
2222.150 73.763 -175.650
2349.460 75.113 -77.939
2484.060 75.989 1.128
2626.360 76.325 64.834
2776.820 76.942 113.298
2935.900 77.458 137.823
3104.100 76.778 145.957
3281.930 76.828 134.911
3469.940 75.116 98.089
3668.730 73.575 51.797
3878.910 70.872 -16.434
4101.130 70.947 -99.549
4336.070 71.042 147.340
4584.480 70.983 -1.201
4847.120 70.501 176.914
5124.810 70.130 -28.677
5418.400 69.414 101.472
5728.810 69.705 -168.796
6057.010 70.498 -127.271
6404.000 70.246 -121.427
6770.880 68.958 -165.749
7158.770 66.793 116.592
7568.890 56.351 45.621
8002.500 63.032 -140.969
8460.950 64.568 4.518
8945.670 58.142 94.785
9458.160 55.973 134.508
10000.000 55.663 88.741
