# Freq(Hz) SPL(dB) Phase (degrees)
10.000 50.957 104.516
10.570 51.754 100.346
11.180 52.542 95.901
11.820 53.304 91.256
12.500 54.046 86.339
13.210 54.754 81.226
13.970 55.441 75.772
14.770 56.093 70.050
15.620 56.711 63.987
16.510 57.281 57.653
17.460 57.807 50.900
18.460 58.273 43.793
19.510 58.669 36.320
20.630 58.985 28.325
21.810 59.198 19.861
23.060 59.283 10.832
24.380 59.198 1.213
25.780 58.886 -9.096
27.260 58.253 -20.118
28.820 57.146 -31.853
30.470 55.260 -44.325
32.220 51.841 -57.398
34.060 43.829 -69.572
36.010 41.943 88.112
38.080 52.849 75.743
40.260 57.725 60.772
42.560 60.831 45.543
45.000 63.040 30.350
47.580 64.683 15.405
50.310 65.942 0.752
53.190 66.926 -13.573
56.230 67.710 -27.632
59.460 68.348 -41.583
62.860 68.870 -55.374
66.460 69.304 -69.165
70.270 69.670 -83.027
74.300 69.979 -97.022
78.550 70.242 -111.178
83.050 70.467 -125.616
87.810 70.661 -140.383
92.840 70.827 -155.523
98.160 70.970 -171.108
103.780 71.092 172.824
109.730 71.196 156.182
116.020 71.283 138.932
122.660 71.355 121.042
129.690 71.414 102.401
137.120 71.459 82.980
144.970 71.493 62.723
153.280 71.515 41.525
162.060 71.525 19.361
171.340 71.523 -3.847
181.160 71.509 -28.199
191.540 71.482 -53.745
202.510 71.441 -80.556
214.110 71.385 -108.726
226.380 71.311 -138.347
239.350 71.217 -169.480
253.060 71.102 157.793
267.560 70.961 123.374
282.890 70.792 87.200
299.090 70.593 49.218
316.230 70.361 9.317
334.340 70.097 -32.501
353.500 69.802 -76.334
373.750 69.487 -122.171
395.160 69.165 -170.062
417.800 68.866 139.919
441.730 68.628 87.651
467.040 68.497 32.798
493.800 68.511 -25.123
522.090 68.675 -86.746
552.000 68.954 -152.679
583.620 69.291 136.685
617.050 69.635 61.152
652.400 69.957 -19.402
689.780 70.247 -105.150
729.290 70.492 163.673
771.080 70.668 66.689
815.250 70.736 -36.277
861.950 70.661 -145.377
911.330 70.426 99.338
963.540 70.030 -22.205
1018.740 69.495 -150.222
1077.110 68.817 74.896
1138.810 67.965 -67.098
1204.050 66.898 143.756
1273.030 65.642 -12.133
1345.960 64.316 -174.476
1423.070 63.166 16.358
1504.590 62.448 -161.278
1590.790 62.238 9.213
1681.920 62.218 164.890
1778.280 61.953 -55.122
1880.150 61.092 69.806
1987.870 59.472 -179.752
2101.750 56.717 -82.261
2222.150 52.689 6.547
2349.460 48.112 93.677
2484.060 45.112 175.674
2626.360 43.029 -124.421
2776.820 39.930 -77.914
2935.900 38.978 -31.221
3104.100 41.253 -19.528
3281.930 43.212 -40.265
3469.940 45.604 -91.036
3668.730 46.971 -177.245
3878.910 46.776 68.505
4101.130 45.338 -69.608
4336.070 43.044 129.566
4584.480 40.864 -57.907
4847.120 37.889 81.721
5124.810 32.155 -164.617
5418.400 27.582 -26.033
5728.810 32.509 40.064
6057.010 35.495 35.844
6404.000 35.650 -11.893
6770.880 34.360 -107.675
7158.770 30.889 107.279
7568.890 23.778 -63.655
8002.500 21.808 129.441
8460.950 26.473 -129.521
8945.670 23.543 -138.302
9458.160 27.441 -171.435
10000.000 14.408 87.809
