# Freq(Hz) SPL(dB) Phase (degrees)
10.000 51.566 106.077
10.570 52.363 101.996
11.180 53.151 97.647
11.820 53.913 93.101
12.500 54.654 88.291
13.210 55.362 83.288
13.970 56.049 77.953
14.770 56.701 72.357
15.620 57.319 66.427
16.510 57.888 60.232
17.460 58.414 53.628
18.460 58.880 46.677
19.510 59.275 39.369
20.630 59.590 31.550
21.810 59.803 23.271
23.060 59.887 14.439
24.380 59.802 5.027
25.780 59.489 -5.062
27.260 58.855 -15.851
28.820 57.747 -27.340
30.470 55.859 -39.551
32.220 52.439 -52.348
34.060 44.425 -64.230
36.010 42.538 93.763
38.080 53.443 81.722
40.260 58.316 67.098
42.560 61.420 52.236
45.000 63.627 37.433
47.580 65.267 22.901
50.310 66.524 8.688
53.190 67.504 -5.173
56.230 68.285 -18.740
59.460 68.919 -32.165
62.860 69.436 -45.400
66.460 69.866 -58.600
70.270 70.227 -71.832
74.300 70.531 -85.157
78.550 70.788 -98.602
83.050 71.008 -112.280
87.810 71.195 -126.238
92.840 71.354 -140.515
98.160 71.490 -155.178
103.780 71.605 -170.260
109.730 71.701 174.152
116.020 71.782 158.032
122.660 71.847 141.350
129.690 71.900 124.007
137.120 71.942 105.979
144.970 71.973 87.218
153.280 71.996 67.632
162.060 72.011 47.200
171.340 72.020 25.856
181.160 72.023 3.514
191.540 72.023 -19.869
202.510 72.022 -44.353
214.110 72.021 -70.024
226.380 72.022 -96.965
239.350 72.030 -125.237
253.060 72.047 -154.927
267.560 72.079 173.858
282.890 72.130 141.022
299.090 72.208 106.463
316.230 72.321 70.000
334.340 72.475 31.520
353.500 72.680 -9.225
373.750 72.939 -52.426
395.160 73.256 -98.370
417.800 73.623 -147.372
441.730 74.026 160.266
467.040 74.434 104.198
493.800 74.807 44.184
522.090 75.095 -19.920
552.000 75.249 -88.137
583.620 75.234 -160.347
617.050 75.038 123.622
652.400 74.675 43.901
689.780 74.178 -39.488
729.290 73.583 -126.627
771.080 72.921 142.208
815.250 72.214 46.851
861.950 71.490 -52.951
911.330 70.792 -157.470
963.540 70.181 92.884
1018.740 69.711 -22.682
1077.110 69.382 -145.187
1138.810 69.124 84.521
1204.050 68.841 -54.046
1273.030 68.466 158.999
1345.960 67.978 3.680
1423.070 67.415 -160.014
1504.590 66.896 27.525
1590.790 66.528 -155.387
1681.920 66.157 9.057
1778.280 65.406 160.233
1880.150 64.060 -60.172
1987.870 62.241 69.324
2101.750 60.244 -170.893
2222.150 58.455 -63.143
2349.460 56.666 27.854
2484.060 53.880 101.061
2626.360 49.528 161.297
2776.820 42.505 -142.485
2935.900 37.468 -32.040
3104.100 44.880 9.108
3281.930 48.468 -0.037
3469.940 50.779 -35.293
3668.730 51.984 -98.910
3878.910 51.897 173.326
4101.130 51.134 62.089
4336.070 49.835 -75.847
4584.480 47.494 117.894
4847.120 43.889 -75.661
5124.810 37.262 64.503
5418.400 29.914 -100.009
5728.810 38.186 0.379
6057.010 41.803 31.370
6404.000 42.724 17.934
6770.880 41.315 -40.973
7158.770 37.172 -142.378
7568.890 28.894 90.536
8002.500 28.568 14.339
8460.950 34.395 135.791
8945.670 35.809 -164.527
9458.160 33.340 -172.240
10000.000 24.285 142.966
