# Freq(Hz) SPL(dB) Phase (degrees)
10.000 52.031 107.195
10.570 52.828 103.178
11.180 53.616 98.896
11.820 54.378 94.422
12.500 55.120 89.689
13.210 55.827 84.765
13.970 56.515 79.515
14.770 57.167 74.008
15.620 57.784 68.174
16.510 58.354 62.079
17.460 58.880 55.582
18.460 59.346 48.743
19.510 59.741 41.552
20.630 60.057 33.859
21.810 60.270 25.712
23.060 60.353 17.021
24.380 60.269 7.758
25.780 59.956 -2.174
27.260 59.322 -12.796
28.820 58.215 -24.108
30.470 56.327 -36.133
32.220 52.908 -48.733
34.060 44.895 -60.406
36.010 43.008 97.808
38.080 53.913 86.002
40.260 58.787 71.627
42.560 61.893 57.027
45.000 64.100 42.504
47.580 65.742 28.268
50.310 67.000 14.368
53.190 67.982 0.839
56.230 68.765 -12.375
59.460 69.401 -25.426
62.860 69.921 -38.265
66.460 70.355 -51.043
70.270 70.719 -63.827
74.300 71.028 -76.676
78.550 71.290 -89.616
83.050 71.516 -102.758
87.810 71.711 -116.145
92.840 71.880 -129.816
98.160 72.027 -143.834
103.780 72.155 -158.232
109.730 72.267 -173.091
116.020 72.367 171.560
122.660 72.455 155.696
129.690 72.536 139.218
137.120 72.610 122.103
144.970 72.681 104.303
153.280 72.751 85.725
162.060 72.821 66.345
171.340 72.895 46.090
181.160 72.975 24.868
191.540 73.063 2.626
202.510 73.163 -20.715
214.110 73.277 -45.254
226.380 73.407 -71.097
239.350 73.554 -98.330
253.060 73.721 -127.065
267.560 73.908 -157.436
282.890 74.114 170.442
299.090 74.340 136.454
316.230 74.584 100.418
334.340 74.844 62.235
353.500 75.119 21.696
373.750 75.403 -21.332
395.160 75.692 -67.055
417.800 75.975 -115.687
441.730 76.234 -167.416
467.040 76.445 137.533
493.800 76.574 79.049
522.090 76.586 17.116
552.000 76.451 -48.155
583.620 76.165 -116.521
617.050 75.765 172.267
652.400 75.329 98.260
689.780 74.958 21.132
729.290 74.725 -59.872
771.080 74.629 -145.825
815.250 74.589 122.520
861.950 74.496 24.809
911.330 74.269 -78.839
963.540 73.895 171.870
1018.740 73.408 57.058
1077.110 72.871 -63.447
1138.810 72.344 170.045
1204.050 71.897 36.857
1273.030 71.565 -104.067
1345.960 71.274 106.170
1423.070 70.900 -52.891
1504.590 70.378 138.927
1590.790 69.751 -38.242
1681.920 69.157 135.180
1778.280 68.697 -62.529
1880.150 68.224 86.449
1987.870 67.375 -138.457
2101.750 66.002 -15.610
2222.150 64.344 95.616
2349.460 62.542 -167.213
2484.060 60.271 -85.967
2626.360 57.097 -20.806
2776.820 52.450 27.464
2935.900 43.348 52.997
3104.100 40.338 -89.606
3281.930 50.239 -106.246
3469.940 54.157 -138.353
3668.730 55.946 168.520
3878.910 56.615 92.830
4101.130 56.320 -6.507
4336.070 55.416 -130.184
4584.480 53.893 78.310
4847.120 51.294 -103.715
5124.810 46.623 42.078
5418.400 35.584 147.626
5728.810 38.135 70.507
6057.010 45.475 111.449
6404.000 48.090 111.660
6770.880 48.104 72.335
7158.770 45.640 -8.462
7568.890 40.270 -136.172
8002.500 18.433 -60.826
8460.950 38.567 11.804
8945.670 41.619 93.639
9458.160 40.925 117.330
10000.000 35.096 75.063
