# Freq(Hz) SPL(dB) Phase (degrees)
10.000 52.769 108.846
10.570 53.566 104.923
11.180 54.355 100.742
11.820 55.117 96.374
12.500 55.859 91.752
13.210 56.567 86.946
13.970 57.255 81.822
14.770 57.907 76.447
15.620 58.525 70.753
16.510 59.096 64.805
17.460 59.622 58.465
18.460 60.089 51.792
19.510 60.485 44.775
20.630 60.802 37.267
21.810 61.016 29.316
23.060 61.101 20.831
24.380 61.018 11.787
25.780 60.706 2.087
27.260 60.075 -8.289
28.820 58.969 -19.343
30.470 57.084 -31.095
32.220 53.667 -43.403
34.060 45.657 -54.771
36.010 43.774 103.767
38.080 54.682 92.306
40.260 59.561 78.293
42.560 62.671 64.077
45.000 64.884 49.960
47.580 66.531 36.155
50.310 67.796 22.711
53.190 68.787 9.663
56.230 69.578 -3.043
59.460 70.224 -15.553
62.860 70.756 -27.823
66.460 71.203 -39.999
70.270 71.582 -52.146
74.300 71.908 -64.322
78.550 72.190 -76.553
83.050 72.439 -88.946
87.810 72.660 -101.544
92.840 72.858 -114.385
98.160 73.039 -127.531
103.780 73.206 -141.018
109.730 73.363 -154.924
116.020 73.514 -169.280
122.660 73.660 175.883
129.690 73.807 160.466
137.120 73.955 144.438
144.970 74.108 127.743
153.280 74.268 110.282
162.060 74.437 92.018
171.340 74.618 72.867
181.160 74.812 52.726
191.540 75.019 31.529
202.510 75.239 9.189
214.110 75.471 -14.401
226.380 75.713 -39.346
239.350 75.962 -65.726
253.060 76.215 -93.636
267.560 76.465 -123.182
282.890 76.710 -154.442
299.090 76.945 172.520
316.230 77.166 137.587
334.340 77.371 100.733
353.500 77.562 61.835
373.750 77.741 20.844
395.160 77.915 -22.358
417.800 78.092 -67.912
441.730 78.277 -115.966
467.040 78.477 -166.751
493.800 78.692 139.523
522.090 78.920 82.617
552.000 79.153 22.281
583.620 79.375 -41.718
617.050 79.572 -109.594
652.400 79.726 178.452
689.780 79.820 102.239
729.290 79.837 21.628
771.080 79.752 -63.555
815.250 79.548 -153.258
861.950 79.230 112.586
911.330 78.846 13.995
963.540 78.467 -89.340
1018.740 78.128 161.930
1077.110 77.801 47.229
1138.810 77.471 -73.494
1204.050 77.214 159.518
1273.030 77.104 25.279
1345.960 77.098 -117.438
1423.070 77.065 90.752
1504.590 76.915 -70.097
1590.790 76.682 120.366
1681.920 76.535 -58.400
1778.280 76.491 111.535
1880.150 76.296 -90.780
1987.870 75.839 55.534
2101.750 75.297 -169.462
2222.150 74.744 -47.418
2349.460 74.038 60.576
2484.060 73.128 154.457
2626.360 72.044 -126.367
2776.820 70.784 -62.658
2935.900 69.362 -15.315
3104.100 67.775 14.384
3281.930 65.887 24.896
3469.940 63.543 15.920
3668.730 60.558 -14.859
3878.910 56.007 -68.186
4101.130 47.031 -141.746
4336.070 42.292 -86.341
4584.480 52.172 155.644
4847.120 55.685 1.345
5124.810 57.291 177.417
5418.400 58.034 -37.123
5728.810 58.049 74.851
6057.010 57.366 152.227
6404.000 56.059 -166.702
6770.880 53.992 -166.289
7158.770 49.860 153.127
7568.890 41.297 74.258
8002.500 35.384 97.224
8460.950 45.557 -70.561
8945.670 48.459 59.292
9458.160 48.357 135.576
10000.000 46.681 155.366
