# Freq(Hz) SPL(dB) Phase (degrees)
10.000 53.080 109.500
10.570 53.878 105.614
11.180 54.666 101.473
11.820 55.428 97.147
12.500 56.171 92.570
13.210 56.879 87.810
13.970 57.567 82.736
14.770 58.220 77.413
15.620 58.838 71.775
16.510 59.409 65.885
17.460 59.936 59.607
18.460 60.403 52.999
19.510 60.800 46.051
20.630 61.118 38.616
21.810 61.332 30.742
23.060 61.418 22.339
24.380 61.336 13.381
25.780 61.026 3.773
27.260 60.395 -6.507
28.820 59.290 -17.459
30.470 57.407 -29.103
32.220 53.992 -41.297
34.060 45.983 -52.545
36.010 44.102 106.121
38.080 55.013 94.794
40.260 59.894 80.924
42.560 63.007 66.857
45.000 65.223 52.899
47.580 66.874 39.261
50.310 68.143 25.994
53.190 69.138 13.132
56.230 69.934 0.622
59.460 70.587 -11.681
62.860 71.125 -23.733
66.460 71.579 -35.680
70.270 71.967 -47.585
74.300 72.302 -59.508
78.550 72.596 -71.474
83.050 72.856 -83.590
87.810 73.091 -95.898
92.840 73.304 -108.438
98.160 73.502 -121.272
103.780 73.689 -134.435
109.730 73.867 -148.009
116.020 74.041 -162.024
122.660 74.213 -176.515
129.690 74.387 168.418
137.120 74.565 152.741
144.970 74.750 136.397
153.280 74.943 119.283
162.060 75.147 101.360
171.340 75.362 82.544
181.160 75.589 62.730
191.540 75.827 41.855
202.510 76.075 19.835
214.110 76.330 -3.431
226.380 76.591 -28.039
239.350 76.851 -54.056
253.060 77.107 -81.563
267.560 77.354 -110.647
282.890 77.588 -141.363
299.090 77.806 -173.752
316.230 78.008 152.099
334.340 78.197 116.187
353.500 78.380 78.409
373.750 78.570 38.719
395.160 78.786 -3.025
417.800 79.045 -47.032
441.730 79.363 -93.567
467.040 79.744 -143.019
493.800 80.174 164.241
522.090 80.618 107.868
552.000 81.027 47.629
583.620 81.352 -16.527
617.050 81.556 -84.510
652.400 81.635 -156.173
689.780 81.610 128.582
729.290 81.521 49.731
771.080 81.413 -33.029
815.250 81.315 -120.059
861.950 81.232 148.100
911.330 81.140 50.956
963.540 80.987 -51.807
1018.740 80.721 -160.176
1077.110 80.343 86.215
1138.810 79.986 -32.361
1204.050 79.824 -156.942
1273.030 79.837 70.773
1345.960 79.880 -69.897
1423.070 79.905 141.022
1504.590 79.914 -16.861
1590.790 79.889 175.983
1681.920 79.828 -0.870
1778.280 79.695 171.915
1880.150 79.448 -25.639
1987.870 79.189 126.030
2101.750 78.901 -94.125
2222.150 78.553 33.674
2349.460 78.238 148.714
2484.060 77.978 -110.176
2626.360 77.731 -24.015
2776.820 77.484 46.404
2935.900 77.232 100.124
3104.100 76.970 136.144
3281.930 76.667 153.249
3469.940 76.265 150.723
3668.730 75.753 127.560
3878.910 75.156 83.324
4101.130 74.590 16.616
4336.070 74.120 -74.582
4584.480 73.654 167.560
4847.120 73.023 21.694
5124.810 72.216 -152.618
5418.400 71.367 3.012
5728.810 70.445 126.215
6057.010 69.366 -144.730
6404.000 68.150 -91.347
6770.880 66.771 -76.120
7158.770 65.202 -100.405
7568.890 63.479 -167.412
8002.500 61.391 80.771
8460.950 58.909 -78.059
8945.670 55.500 74.877
9458.160 51.245 175.460
10000.000 44.227 -125.920
