# Freq(Hz) SPL(dB) Phase (degrees)
10.000 52.480 108.218
10.570 53.278 104.259
11.180 54.066 100.040
11.820 54.828 95.631
12.500 55.570 90.967
13.210 56.278 86.117
13.970 56.965 80.945
14.770 57.617 75.519
15.620 58.235 69.772
16.510 58.805 63.768
17.460 59.332 57.368
18.460 59.798 50.632
19.510 60.193 43.549
20.630 60.510 35.971
21.810 60.723 27.945
23.060 60.808 19.382
24.380 60.724 10.255
25.780 60.412 0.467
27.260 59.779 -10.003
28.820 58.673 -21.155
30.470 56.786 -33.010
32.220 53.369 -45.429
34.060 45.357 -56.912
36.010 43.472 101.503
38.080 54.379 89.911
40.260 59.255 75.761
42.560 62.363 61.400
45.000 64.574 47.130
47.580 66.218 33.162
50.310 67.480 19.546
53.190 68.467 6.317
56.230 69.254 -6.581
59.460 69.896 -19.294
62.860 70.422 -31.777
66.460 70.862 -44.179
70.270 71.235 -56.564
74.300 71.553 -68.990
78.550 71.827 -81.485
83.050 72.065 -94.155
87.810 72.274 -107.043
92.840 72.460 -120.189
98.160 72.626 -133.654
103.780 72.776 -147.471
109.730 72.914 -161.720
116.020 73.043 -176.430
122.660 73.166 168.369
129.690 73.285 152.580
137.120 73.404 136.176
144.970 73.525 119.103
153.280 73.651 101.265
162.060 73.784 82.628
171.340 73.927 63.114
181.160 74.081 42.620
191.540 74.250 21.083
202.510 74.432 -1.583
214.110 74.630 -25.488
226.380 74.843 -50.740
239.350 75.068 -77.429
253.060 75.305 -105.661
267.560 75.548 -135.556
282.890 75.796 -167.212
299.090 76.042 159.285
316.230 76.285 123.790
334.340 76.519 86.249
353.500 76.743 46.507
373.750 76.954 4.488
395.160 77.151 -39.950
417.800 77.329 -86.952
441.730 77.483 -136.644
467.040 77.605 170.809
493.800 77.684 115.324
522.090 77.716 56.856
552.000 77.708 -4.630
583.620 77.687 -69.211
617.050 77.690 -137.132
652.400 77.745 151.144
689.780 77.848 75.035
729.290 77.957 -5.965
771.080 78.001 -92.251
815.250 77.905 176.199
861.950 77.620 79.614
911.330 77.157 -21.610
963.540 76.602 -127.256
1018.740 76.067 122.359
1077.110 75.620 6.378
1138.810 75.255 -115.963
1204.050 74.950 114.765
1273.030 74.707 -21.936
1345.960 74.528 -166.638
1423.070 74.408 39.949
1504.590 74.321 -123.039
1590.790 74.167 63.588
1681.920 73.822 -120.234
1778.280 73.279 46.107
1880.150 72.765 -157.598
1987.870 72.385 -14.037
2101.750 71.752 115.266
2222.150 70.727 -128.172
2349.460 69.528 -24.827
2484.060 68.081 63.647
2626.360 66.248 136.676
2776.820 63.953 -166.464
2935.900 60.997 -127.428
3104.100 56.795 -109.058
3281.930 49.072 -120.537
3469.940 43.628 106.197
3668.730 52.921 36.694
3878.910 56.563 -31.803
4101.130 58.170 -120.055
4336.070 58.690 129.048
4584.480 58.709 -6.872
4847.120 58.268 -172.705
5124.810 56.929 -9.895
5418.400 54.324 120.540
5728.810 49.713 -141.661
6057.010 39.588 -82.722
6404.000 39.695 136.180
6770.880 47.801 116.360
7158.770 50.155 57.691
7568.890 49.995 -42.908
8002.500 48.005 170.285
8460.950 43.023 -25.469
8945.670 27.348 117.484
9458.160 37.854 -42.375
10000.000 42.524 -42.991
