# Freq(Hz) SPL(dB) Phase (degrees)
10.000 52.850 109.019
10.570 53.648 105.106
11.180 54.436 100.936
11.820 55.198 96.579
12.500 55.941 91.969
13.210 56.649 87.176
13.970 57.337 82.064
14.770 57.989 76.703
15.620 58.607 71.025
16.510 59.178 65.092
17.460 59.704 58.768
18.460 60.171 52.112
19.510 60.567 45.114
20.630 60.884 37.625
21.810 61.099 29.694
23.060 61.184 21.231
24.380 61.101 12.210
25.780 60.790 2.535
27.260 60.158 -7.816
28.820 59.053 -18.843
30.470 57.168 -30.566
32.220 53.752 -42.844
34.060 45.742 -54.180
36.010 43.859 104.393
38.080 54.769 92.967
40.260 59.648 78.992
42.560 62.758 64.816
45.000 64.972 50.741
47.580 66.621 36.981
50.310 67.887 23.584
53.190 68.878 10.586
56.230 69.670 -2.068
59.460 70.318 -14.523
62.860 70.852 -26.734
66.460 71.300 -38.849
70.270 71.682 -50.931
74.300 72.010 -63.039
78.550 72.295 -75.199
83.050 72.547 -87.517
87.810 72.771 -100.037
92.840 72.974 -112.796
98.160 73.159 -125.858
103.780 73.331 -139.257
109.730 73.494 -153.072
116.020 73.650 -167.335
122.660 73.804 177.923
129.690 73.957 162.602
137.120 74.113 146.671
144.970 74.275 130.073
153.280 74.444 112.709
162.060 74.624 94.538
171.340 74.814 75.480
181.160 75.017 55.429
191.540 75.233 34.319
202.510 75.462 12.064
214.110 75.701 -11.441
226.380 75.949 -36.299
239.350 76.202 -62.589
253.060 76.457 -90.399
267.560 76.707 -119.834
282.890 76.950 -150.963
299.090 77.179 176.155
316.230 77.394 141.411
334.340 77.593 104.786
353.500 77.778 66.164
373.750 77.955 25.502
395.160 78.133 -17.319
417.800 78.322 -62.450
441.730 78.534 -110.061
467.040 78.774 -160.420
493.800 79.045 146.213
522.090 79.336 89.551
552.000 79.628 29.317
583.620 79.895 -34.700
617.050 80.111 -102.642
652.400 80.256 -174.610
689.780 80.323 109.308
729.290 80.304 29.032
771.080 80.193 -55.607
815.250 79.990 -144.613
861.950 79.708 121.955
911.330 79.390 23.951
963.540 79.082 -79.047
1018.740 78.786 172.388
1077.110 78.462 57.923
1138.810 78.125 -62.310
1204.050 77.885 171.347
1273.030 77.812 37.660
1345.960 77.823 -104.587
1423.070 77.782 104.244
1504.590 77.636 -55.642
1590.790 77.466 135.916
1681.920 77.425 -42.150
1778.280 77.418 128.077
1880.150 77.158 -73.396
1987.870 76.706 74.707
2101.750 76.312 -148.739
2222.150 75.864 -25.682
2349.460 75.231 83.832
2484.060 74.470 179.561
2626.360 73.596 -99.386
2776.820 72.612 -33.766
2935.900 71.546 15.462
3104.100 70.399 46.964
3281.930 69.075 59.637
3469.940 67.642 52.465
3668.730 65.830 22.772
3878.910 63.359 -29.406
4101.130 59.784 -104.256
4336.070 54.512 160.521
4584.480 45.315 58.539
4847.120 43.907 16.908
5124.810 51.265 -138.584
5418.400 54.892 15.396
5728.810 56.819 131.925
6057.010 57.556 -147.864
6404.000 57.527 -103.131
6770.880 57.028 -98.534
7158.770 55.530 -135.586
7568.890 52.865 145.195
8002.500 48.523 22.030
8460.950 39.698 -140.700
8945.670 35.329 125.349
9458.160 43.950 -133.256
10000.000 46.787 -102.839
