# Freq(Hz) SPL(dB) Phase (degrees)
10.000 51.914 106.919
10.570 52.711 102.886
11.180 53.499 98.588
11.820 54.261 94.096
12.500 55.003 89.344
13.210 55.710 84.401
13.970 56.397 79.130
14.770 57.049 73.601
15.620 57.667 67.743
16.510 58.236 61.624
17.460 58.762 55.100
18.460 59.228 48.233
19.510 59.623 41.014
20.630 59.939 33.289
21.810 60.152 25.110
23.060 60.235 16.384
24.380 60.151 7.084
25.780 59.838 -2.886
27.260 59.204 -13.549
28.820 58.096 -24.905
30.470 56.208 -36.976
32.220 52.789 -49.624
34.060 44.775 -61.349
36.010 42.889 96.811
38.080 53.793 84.947
40.260 58.667 70.510
42.560 61.772 55.846
45.000 63.979 41.254
47.580 65.620 26.945
50.310 66.878 12.968
53.190 67.859 -0.642
56.230 68.641 -13.943
59.460 69.276 -27.086
62.860 69.796 -40.022
66.460 70.228 -52.904
70.270 70.590 -65.797
74.300 70.897 -78.763
78.550 71.158 -91.826
83.050 71.382 -105.099
87.810 71.574 -118.624
92.840 71.739 -132.442
98.160 71.882 -146.616
103.780 72.006 -161.179
109.730 72.113 -176.213
116.020 72.206 168.254
122.660 72.287 152.196
129.690 72.359 135.515
137.120 72.424 118.187
144.970 72.483 100.165
153.280 72.538 81.357
162.060 72.592 61.741
171.340 72.648 41.246
181.160 72.707 19.782
191.540 72.773 -2.701
202.510 72.847 -26.275
214.110 72.933 -51.039
226.380 73.033 -77.092
239.350 73.150 -104.516
253.060 73.286 -133.421
267.560 73.444 -163.938
282.890 73.624 163.818
299.090 73.829 129.726
316.230 74.058 93.600
334.340 74.310 55.331
353.500 74.587 14.696
373.750 74.883 -28.455
395.160 75.194 -74.347
417.800 75.509 -123.215
441.730 75.810 -175.271
467.040 76.071 129.235
493.800 76.254 70.162
522.090 76.320 7.464
552.000 76.230 -58.776
583.620 75.969 -128.329
617.050 75.556 159.078
652.400 75.050 83.611
689.780 74.543 5.163
729.290 74.128 -76.756
771.080 73.848 -163.078
815.250 73.676 105.336
861.950 73.527 7.846
911.330 73.316 -95.722
963.540 73.009 154.728
1018.740 72.609 39.209
1077.110 72.142 -82.439
1138.810 71.637 149.621
1204.050 71.156 15.016
1273.030 70.768 -127.049
1345.960 70.465 82.243
1423.070 70.147 -78.020
1504.590 69.697 111.804
1590.790 69.034 -68.237
1681.920 68.150 102.368
1778.280 67.256 -96.105
1880.150 66.642 54.002
1987.870 66.019 -171.013
2101.750 64.849 -50.772
2222.150 63.075 56.970
2349.460 60.925 152.230
2484.060 58.393 -127.806
2626.360 54.890 -64.068
2776.820 49.349 -16.462
2935.900 35.014 16.212
3104.100 43.828 -161.012
3281.930 50.270 -169.436
3469.940 53.472 160.523
3668.730 55.111 105.327
3878.910 55.542 26.962
4101.130 55.133 -75.509
4336.070 53.996 156.918
4584.480 52.148 2.406
4847.120 49.278 177.317
5124.810 43.736 -40.437
5418.400 26.402 72.834
5728.810 39.445 -33.782
6057.010 44.573 4.199
6404.000 46.870 4.580
6770.880 46.374 -40.391
7158.770 43.301 -126.362
7568.890 36.110 104.499
8002.500 26.626 101.791
8460.950 38.426 -129.404
8945.670 40.681 -54.506
9458.160 38.976 -36.902
10000.000 31.538 -87.658
