# Freq(Hz) SPL(dB) Phase (degrees)
10.000 50.729 103.902
10.570 51.526 99.697
11.180 52.315 95.214
11.820 53.076 90.529
12.500 53.819 85.571
13.210 54.527 80.413
13.970 55.214 74.913
14.770 55.867 69.141
15.620 56.485 63.027
16.510 57.055 56.638
17.460 57.581 49.826
18.460 58.048 42.657
19.510 58.444 35.119
20.630 58.761 27.055
21.810 58.974 18.518
23.060 59.059 9.413
24.380 58.976 -0.288
25.780 58.664 -10.684
27.260 58.032 -21.797
28.820 56.926 -33.628
30.470 55.040 -46.202
32.220 51.623 -59.385
34.060 43.612 -71.672
36.010 41.728 85.891
38.080 52.636 73.392
40.260 57.513 58.286
42.560 60.621 42.914
45.000 62.832 27.569
47.580 64.478 12.462
50.310 65.740 -2.362
53.190 66.727 -16.869
56.230 67.514 -31.119
59.460 68.156 -45.275
62.860 68.682 -59.281
66.460 69.122 -73.302
70.270 69.492 -87.406
74.300 69.808 -101.660
78.550 70.077 -116.090
83.050 70.310 -130.820
87.810 70.512 -145.898
92.840 70.688 -161.369
98.160 70.841 -177.306
103.780 70.975 166.252
109.730 71.091 149.209
116.020 71.193 131.531
122.660 71.281 113.184
129.690 71.357 94.053
137.120 71.423 74.106
144.970 71.478 53.286
153.280 71.524 31.483
162.060 71.561 8.665
171.340 71.589 -15.248
181.160 71.609 -40.364
191.540 71.619 -66.738
202.510 71.618 -94.451
214.110 71.607 -123.606
226.380 71.583 -154.308
239.350 71.544 173.367
253.060 71.489 139.319
267.560 71.413 103.429
282.890 71.315 65.601
299.090 71.189 25.749
316.230 71.033 -16.286
334.340 70.841 -60.559
353.500 70.610 -107.240
373.750 70.333 -156.397
395.160 70.006 151.838
417.800 69.622 97.346
441.730 69.174 40.046
467.040 68.654 -20.191
493.800 68.056 -83.416
522.090 67.371 -149.648
552.000 66.597 141.155
583.620 65.749 69.149
617.050 64.879 -5.468
652.400 64.095 -82.644
689.780 63.553 -162.817
729.290 63.380 112.822
771.080 63.579 22.544
815.250 64.018 -74.861
861.950 64.537 -179.872
911.330 65.044 67.541
963.540 65.509 -52.608
1018.740 65.952 179.439
1077.110 66.362 43.010
1138.810 66.666 -102.496
1204.050 66.755 102.592
1273.030 66.576 -61.494
1345.960 66.126 125.220
1423.070 65.442 -57.424
1504.590 64.511 110.167
1590.790 63.321 -92.483
1681.920 61.809 54.427
1778.280 59.940 -168.369
1880.150 57.981 -39.923
1987.870 56.459 78.392
2101.750 55.458 -179.070
2222.150 54.386 -95.501
2349.460 52.662 -30.714
2484.060 49.830 17.161
2626.360 45.450 52.094
2776.820 39.341 86.541
2935.900 36.376 132.997
3104.100 37.921 143.168
3281.930 39.846 119.939
3469.940 42.408 63.030
3668.730 43.776 -31.906
3878.910 43.881 -154.726
4101.130 43.033 56.998
4336.070 41.785 -119.155
4584.480 39.620 32.107
4847.120 35.109 154.875
5124.810 28.812 -94.857
5418.400 26.244 14.134
5728.810 30.644 65.044
6057.010 32.617 44.408
6404.000 32.789 -18.038
6770.880 32.977 -136.995
7158.770 27.714 65.352
7568.890 23.024 -120.034
8002.500 22.380 30.834
8460.950 24.509 91.805
8945.670 26.184 42.752
9458.160 13.884 -23.723
10000.000 14.706 -141.419
