# Freq(Hz) SPL(dB) Phase (degrees)
10.000 51.796 106.640
10.570 52.594 102.591
11.180 53.382 98.275
11.820 54.143 93.766
12.500 54.885 88.994
13.210 55.593 84.031
13.970 56.280 78.739
14.770 56.932 73.188
15.620 57.549 67.306
16.510 58.119 61.162
17.460 58.645 54.611
18.460 59.110 47.716
19.510 59.506 40.467
20.630 59.821 32.712
21.810 60.034 24.499
23.060 60.118 15.738
24.380 60.033 6.401
25.780 59.720 -3.609
27.260 59.086 -14.314
28.820 57.978 -25.714
30.470 56.090 -37.832
32.220 52.671 -50.529
34.060 44.657 -62.306
36.010 42.770 95.799
38.080 53.674 83.876
40.260 58.548 69.377
42.560 61.652 54.647
45.000 63.859 39.985
47.580 65.500 25.603
50.310 66.757 11.547
53.190 67.738 -2.146
56.230 68.519 -15.535
59.460 69.154 -28.771
62.860 69.672 -41.806
66.460 70.103 -54.794
70.270 70.465 -67.799
74.300 70.770 -80.883
78.550 71.029 -94.072
83.050 71.251 -107.479
87.810 71.441 -121.147
92.840 71.604 -135.116
98.160 71.743 -149.450
103.780 71.863 -164.183
109.730 71.966 -179.398
116.020 72.054 164.878
122.660 72.129 148.618
129.690 72.193 131.723
137.120 72.248 114.170
144.970 72.296 95.912
153.280 72.339 76.858
162.060 72.379 56.986
171.340 72.417 36.229
181.160 72.456 14.497
191.540 72.498 -8.256
202.510 72.546 -32.099
214.110 72.602 -57.124
226.380 72.670 -83.426
239.350 72.753 -111.082
253.060 72.853 -140.193
267.560 72.975 -170.888
282.890 73.121 156.721
299.090 73.294 122.514
316.230 73.497 86.302
334.340 73.732 47.967
353.500 73.999 7.275
373.750 74.299 -35.940
395.160 74.625 -81.923
417.800 74.968 -130.935
441.730 75.310 176.788
467.040 75.624 120.968
493.800 75.869 61.433
522.090 76.003 -1.895
552.000 75.982 -68.970
583.620 75.782 -139.597
617.050 75.406 146.479
652.400 74.895 69.452
689.780 74.318 -10.657
729.290 73.758 -94.088
771.080 73.280 178.519
815.250 72.906 86.456
861.950 72.606 -11.026
911.330 72.327 -114.393
963.540 72.030 136.138
1018.740 71.700 20.335
1077.110 71.324 -102.095
1138.810 70.890 128.682
1204.050 70.419 -7.498
1273.030 69.973 -151.022
1345.960 69.601 57.237
1423.070 69.284 -103.792
1504.590 68.943 84.920
1590.790 68.434 -97.350
1681.920 67.565 69.592
1778.280 66.308 -132.619
1880.150 65.120 16.733
1987.870 64.317 153.303
2101.750 63.382 -86.284
2222.150 61.836 19.023
2349.460 59.567 110.802
2484.060 56.722 -171.050
2626.360 52.918 -107.926
2776.820 46.722 -59.818
2935.900 28.392 24.568
3104.100 44.953 140.299
3281.930 50.390 128.729
3469.940 52.741 95.155
3668.730 53.995 39.080
3878.910 54.307 -41.919
4101.130 53.732 -146.997
4336.070 52.597 82.555
4584.480 50.640 -76.689
4847.120 47.256 94.720
5124.810 41.098 -123.384
5418.400 22.942 74.109
5728.810 39.445 -141.513
6057.010 44.052 -103.515
6404.000 45.525 -107.932
6770.880 44.627 -157.064
7158.770 40.975 113.318
7568.890 33.006 -18.136
8002.500 28.101 -42.249
8460.950 37.495 84.774
8945.670 38.998 152.430
9458.160 37.127 163.889
10000.000 27.686 117.816
