# Freq(Hz) SPL(dB) Phase (degrees)
10.000 50.798 104.090
10.570 51.595 99.895
11.180 52.384 95.424
11.820 53.145 90.751
12.500 53.888 85.806
13.210 54.595 80.662
13.970 55.283 75.176
14.770 55.935 69.419
15.620 56.553 63.321
16.510 57.123 56.948
17.460 57.650 50.155
18.460 58.116 43.004
19.510 58.512 35.487
20.630 58.829 27.444
21.810 59.042 18.929
23.060 59.127 9.847
24.380 59.043 0.172
25.780 58.731 -10.198
27.260 58.099 -21.284
28.820 56.992 -33.085
30.470 55.106 -45.628
32.220 51.689 -58.777
34.060 43.677 -71.030
36.010 41.793 86.570
38.080 52.700 74.111
40.260 57.576 59.046
42.560 60.684 43.717
45.000 62.894 28.419
47.580 64.539 13.361
50.310 65.800 -1.410
53.190 66.786 -15.862
56.230 67.572 -30.054
59.460 68.213 -44.147
62.860 68.737 -58.088
66.460 69.175 -72.039
70.270 69.544 -86.069
74.300 69.857 -100.245
78.550 70.125 -114.592
83.050 70.355 -129.233
87.810 70.554 -144.217
92.840 70.727 -159.588
98.160 70.876 -175.418
103.780 71.005 168.252
109.730 71.118 151.330
116.020 71.214 133.781
122.660 71.297 115.571
129.690 71.367 96.587
137.120 71.425 76.797
144.970 71.473 56.145
153.280 71.510 34.522
162.060 71.537 11.898
171.340 71.554 -11.807
181.160 71.561 -36.698
191.540 71.558 -62.830
202.510 71.542 -90.279
214.110 71.513 -119.149
226.380 71.470 -149.538
239.350 71.409 178.479
253.060 71.329 144.809
267.560 71.225 109.337
282.890 71.095 71.977
299.090 70.934 32.651
316.230 70.738 -8.785
334.340 70.503 -52.369
353.500 70.223 -98.247
373.750 69.894 -146.456
395.160 69.514 162.915
417.800 69.081 109.798
441.730 68.598 54.175
467.040 68.073 -4.025
493.800 67.525 -64.823
522.090 66.984 -128.289
552.000 66.488 165.433
583.620 66.088 96.102
617.050 65.839 23.306
652.400 65.788 -53.609
689.780 65.951 -135.490
729.290 66.290 136.816
771.080 66.722 42.570
815.250 67.149 -58.500
861.950 67.499 -166.470
911.330 67.739 78.713
963.540 67.873 -43.004
1018.740 67.933 -171.898
1077.110 67.920 51.416
1138.810 67.786 -93.622
1204.050 67.444 112.608
1273.030 66.849 -49.780
1345.960 65.987 139.208
1423.070 64.890 -40.458
1504.590 63.563 131.189
1590.790 62.071 -65.884
1681.920 60.550 88.342
1778.280 59.274 -126.845
1880.150 58.570 5.854
1987.870 58.174 120.952
2101.750 57.436 -142.647
2222.150 55.867 -63.778
2349.460 53.202 -0.854
2484.060 49.127 48.116
2626.360 43.166 88.217
2776.820 35.306 139.794
2935.900 34.100 -149.232
3104.100 38.595 -133.751
3281.930 42.405 -167.589
3469.940 44.284 124.917
3668.730 44.270 33.034
3878.910 43.835 -80.865
4101.130 43.264 137.389
4336.070 41.972 -35.173
4584.480 39.689 124.229
4847.120 36.437 -104.225
5124.810 31.283 1.934
5418.400 26.834 117.817
5728.810 31.247 175.886
6057.010 34.608 161.570
6404.000 34.786 84.870
6770.880 31.897 -22.662
7158.770 30.044 -161.472
7568.890 22.470 15.208
8002.500 21.529 -165.560
8460.950 25.334 -137.627
8945.670 23.566 -123.089
9458.160 23.205 -168.757
10000.000 15.354 35.653
