# Freq(Hz) SPL(dB) Phase (degrees)
10.000 52.373 107.978
10.570 53.170 104.006
11.180 53.959 99.772
11.820 54.720 95.348
12.500 55.462 90.668
13.210 56.170 85.800
13.970 56.858 80.610
14.770 57.510 75.165
15.620 58.127 69.398
16.510 58.697 63.373
17.460 59.223 56.950
18.460 59.690 50.190
19.510 60.085 43.082
20.630 60.401 35.476
21.810 60.615 27.422
23.060 60.699 18.829
24.380 60.615 9.670
25.780 60.303 -0.151
27.260 59.670 -10.656
28.820 58.563 -21.846
30.470 56.676 -33.741
32.220 53.258 -46.202
34.060 45.246 -57.730
36.010 43.360 100.639
38.080 54.267 88.997
40.260 59.142 74.794
42.560 62.249 60.377
45.000 64.459 46.048
47.580 66.103 32.017
50.310 67.364 18.335
53.190 68.349 5.037
56.230 69.135 -7.935
59.460 69.775 -20.726
62.860 70.300 -33.292
66.460 70.738 -45.781
70.270 71.109 -58.258
74.300 71.424 -70.782
78.550 71.695 -83.379
83.050 71.930 -96.158
87.810 72.135 -109.160
92.840 72.316 -122.426
98.160 72.477 -136.016
103.780 72.621 -149.965
109.730 72.753 -164.351
116.020 72.874 -179.205
122.660 72.988 165.447
129.690 73.098 149.507
137.120 73.206 132.947
144.970 73.314 115.717
153.280 73.427 97.721
162.060 73.545 78.927
171.340 73.672 59.258
181.160 73.810 38.614
191.540 73.961 16.933
202.510 74.127 -5.870
214.110 74.308 -29.904
226.380 74.506 -55.279
239.350 74.718 -82.084
253.060 74.943 -110.428
267.560 75.180 -140.439
282.890 75.424 -172.218
299.090 75.672 154.140
316.230 75.920 118.480
334.340 76.165 80.737
353.500 76.403 40.743
373.750 76.632 -1.590
395.160 76.847 -46.418
417.800 77.043 -93.900
441.730 77.209 -144.169
467.040 77.331 162.607
493.800 77.393 106.361
522.090 77.382 47.087
552.000 77.301 -15.167
583.620 77.179 -80.362
617.050 77.069 -148.633
652.400 77.025 139.579
689.780 77.070 63.589
729.290 77.170 -17.295
771.080 77.246 -103.634
815.250 77.205 164.489
861.950 76.977 67.265
911.330 76.550 -34.878
963.540 75.992 -141.601
1018.740 75.412 106.976
1077.110 74.904 -9.850
1138.810 74.496 -132.915
1204.050 74.171 96.972
1273.030 73.899 -40.807
1345.960 73.644 173.338
1423.070 73.414 19.057
1504.590 73.254 -144.369
1590.790 73.136 41.740
1681.920 72.882 -143.494
1778.280 72.316 20.423
1880.150 71.561 174.613
1987.870 70.939 -42.388
2101.750 70.278 86.388
2222.150 69.239 -158.873
2349.460 67.878 -57.727
2484.060 66.189 28.775
2626.360 64.050 99.580
2776.820 61.258 153.787
2935.900 57.435 -170.642
3104.100 51.287 -159.376
3281.930 41.451 124.474
3469.940 51.167 36.158
3668.730 55.728 -16.557
3878.910 57.853 -85.913
4101.130 58.580 -176.882
4336.070 58.581 69.228
4584.480 58.029 -71.134
4847.120 56.957 119.486
5124.810 54.902 -81.827
5418.400 51.072 42.495
5728.810 43.174 127.530
6057.010 36.026 51.685
6404.000 46.920 50.404
6770.880 50.256 21.785
7158.770 50.585 -41.400
7568.890 48.899 -149.354
8002.500 44.690 55.036
8460.950 32.799 -147.761
8945.670 36.812 142.468
9458.160 43.074 -170.856
10000.000 43.425 177.428
