# Freq(Hz) SPL(dB) Phase (degrees)
10.000 51.454 105.799
10.570 52.251 101.702
11.180 53.039 97.335
11.820 53.801 92.772
12.500 54.543 87.943
13.210 55.250 82.920
13.970 55.937 77.564
14.770 56.589 71.945
15.620 57.207 65.992
16.510 57.776 59.772
17.460 58.302 53.142
18.460 58.768 46.163
19.510 59.163 38.825
20.630 59.479 30.974
21.810 59.691 22.662
23.060 59.775 13.795
24.380 59.690 4.347
25.780 59.377 -5.782
27.260 58.743 -16.612
28.820 57.635 -28.145
30.470 55.747 -40.403
32.220 52.328 -53.249
34.060 44.314 -65.183
36.010 42.427 92.755
38.080 53.331 80.655
40.260 58.205 65.969
42.560 61.309 51.041
45.000 63.516 36.169
47.580 65.156 21.564
50.310 66.413 7.272
53.190 67.394 -6.673
56.230 68.174 -20.327
59.460 68.808 -33.846
62.860 69.326 -47.181
66.460 69.756 -60.487
70.270 70.116 -73.831
74.300 70.420 -87.276
78.550 70.677 -100.848
83.050 70.896 -114.662
87.810 71.083 -128.764
92.840 71.242 -143.195
98.160 71.377 -158.023
103.780 71.491 -173.281
109.730 71.586 170.944
116.020 71.664 154.623
122.660 71.728 137.728
129.690 71.778 120.156
137.120 71.815 101.883
144.970 71.841 82.861
153.280 71.857 62.996
162.060 71.864 42.267
171.340 71.862 20.608
181.160 71.852 -2.069
191.540 71.836 -25.803
202.510 71.814 -50.656
214.110 71.788 -76.710
226.380 71.760 -104.043
239.350 71.732 -132.712
253.060 71.706 -162.792
267.560 71.689 165.618
282.890 71.685 132.439
299.090 71.701 97.583
316.230 71.748 60.889
334.340 71.837 22.256
353.500 71.979 -18.553
373.750 72.185 -61.729
395.160 72.464 -107.574
417.800 72.813 -156.432
441.730 73.220 151.353
467.040 73.658 95.387
493.800 74.084 35.387
522.090 74.446 -28.832
552.000 74.692 -97.324
583.620 74.782 -170.002
617.050 74.702 113.275
652.400 74.459 32.596
689.780 74.076 -52.059
729.290 73.575 -140.801
771.080 72.967 126.100
815.250 72.251 28.555
861.950 71.433 -73.513
911.330 70.549 179.910
963.540 69.680 68.768
1018.740 68.940 -47.469
1077.110 68.419 -169.889
1138.810 68.110 60.152
1204.050 67.909 -78.504
1273.030 67.678 133.563
1345.960 67.299 -23.695
1423.070 66.712 170.050
1504.590 65.980 -4.729
1590.790 65.294 171.581
1681.920 64.802 -23.031
1778.280 64.314 128.934
1880.150 63.489 -93.020
1987.870 62.094 31.657
2101.750 59.984 144.594
2222.150 57.409 -111.951
2349.460 54.958 -20.201
2484.060 52.297 55.283
2626.360 48.235 114.372
2776.820 41.261 170.595
2935.900 37.860 -84.051
3104.100 44.899 -50.287
3281.930 48.411 -67.188
3469.940 49.781 -108.036
3668.730 50.545 -170.902
3878.910 50.695 98.836
4101.130 49.810 -16.996
4336.070 48.337 -156.888
4584.480 46.405 33.732
4847.120 42.791 -167.404
5124.810 35.844 -26.508
5418.400 30.293 154.810
5728.810 37.353 -109.288
6057.010 40.857 -80.347
6404.000 41.117 -103.768
6770.880 39.718 -168.390
7158.770 35.762 87.306
7568.890 27.717 -44.807
8002.500 27.655 -142.399
8460.950 32.721 -22.658
8945.670 33.835 31.178
9458.160 30.772 14.367
10000.000 19.843 -29.782
