# Freq(Hz) SPL(dB) Phase (degrees)
10.000 52.261 107.727
10.570 53.059 103.740
11.180 53.847 99.491
11.820 54.609 95.051
12.500 55.351 90.353
13.210 56.058 85.468
13.970 56.746 80.258
14.770 57.398 74.794
15.620 58.016 69.005
16.510 58.585 62.957
17.460 59.111 56.510
18.460 59.577 49.725
19.510 59.973 42.590
20.630 60.289 34.957
21.810 60.502 26.873
23.060 60.586 18.248
24.380 60.502 9.056
25.780 60.189 -0.801
27.260 59.556 -11.344
28.820 58.449 -22.573
30.470 56.562 -34.510
32.220 53.143 -47.015
34.060 45.131 -58.590
36.010 43.245 99.730
38.080 54.151 88.035
40.260 59.026 73.777
42.560 62.132 59.302
45.000 64.341 44.910
47.580 65.984 30.814
50.310 67.244 17.062
53.190 68.228 3.690
56.230 69.013 -9.359
59.460 69.652 -22.234
62.860 70.175 -34.886
66.460 70.611 -47.468
70.270 70.979 -60.043
74.300 71.292 -72.670
78.550 71.560 -85.376
83.050 71.792 -98.270
87.810 71.993 -111.394
92.840 72.170 -124.788
98.160 72.326 -138.513
103.780 72.464 -152.603
109.730 72.589 -167.138
116.020 72.703 177.855
122.660 72.808 162.346
129.690 72.908 146.240
137.120 73.005 129.510
144.970 73.101 112.107
153.280 73.199 93.935
162.060 73.302 74.965
171.340 73.412 55.123
181.160 73.532 34.309
191.540 73.664 12.464
202.510 73.810 -10.495
214.110 73.972 -34.675
226.380 74.150 -60.185
239.350 74.345 -87.116
253.060 74.556 -115.579
267.560 74.781 -145.704
282.890 75.018 -177.600
299.090 75.264 148.630
316.230 75.516 112.824
334.340 75.770 74.905
353.500 76.023 34.690
373.750 76.271 -7.923
395.160 76.509 -53.104
417.800 76.729 -101.029
441.730 76.918 -151.846
467.040 77.056 154.265
493.800 77.121 97.233
522.090 77.092 37.070
552.000 76.961 -26.122
583.620 76.750 -92.194
617.050 76.519 -161.133
652.400 76.346 126.743
689.780 76.285 50.746
729.290 76.330 -29.975
771.080 76.407 -116.199
815.250 76.410 151.817
861.950 76.247 54.170
911.330 75.883 -48.741
963.540 75.360 -156.519
1018.740 74.771 90.876
1077.110 74.217 -27.047
1138.810 73.757 -151.036
1204.050 73.402 77.961
1273.030 73.114 -60.913
1345.960 72.814 151.855
1423.070 72.473 -3.794
1504.590 72.162 -168.081
1590.790 71.963 17.748
1681.920 71.775 -167.999
1778.280 71.328 -5.834
1880.150 70.519 145.472
1987.870 69.586 -73.616
2101.750 68.689 54.698
2222.150 67.607 168.582
2349.460 66.165 -92.180
2484.060 64.249 -7.798
2626.360 61.794 60.881
2776.820 58.473 112.250
2935.900 53.492 143.290
3104.100 43.497 133.663
3281.930 46.266 15.788
3469.940 53.314 -20.840
3668.730 56.570 -71.729
3878.910 57.986 -143.010
4101.130 58.285 122.834
4336.070 57.800 5.617
4584.480 56.902 -138.199
4847.120 55.287 47.977
5124.810 52.309 -157.925
5418.400 46.945 -40.213
5728.810 33.543 2.494
6057.010 43.490 -51.213
6404.000 48.873 -44.528
6770.880 50.602 -74.660
7158.770 49.636 -146.584
7568.890 46.625 98.598
8002.500 39.275 -67.253
8460.950 30.860 -65.397
8945.670 41.380 12.446
9458.160 43.818 52.713
10000.000 41.938 27.442
