# Freq(Hz) SPL(dB) Phase (degrees)
10.000 50.798 104.090
10.570 51.595 99.895
11.180 52.384 95.424
11.820 53.145 90.751
12.500 53.888 85.806
13.210 54.595 80.662
13.970 55.283 75.176
14.770 55.935 69.419
15.620 56.553 63.321
16.510 57.123 56.948
17.460 57.650 50.155
18.460 58.116 43.004
19.510 58.512 35.487
20.630 58.829 27.444
21.810 59.042 18.929
23.060 59.127 9.847
24.380 59.043 0.172
25.780 58.731 -10.198
27.260 58.099 -21.284
28.820 56.992 -33.085
30.470 55.106 -45.628
32.220 51.689 -58.777
34.060 43.677 -71.030
36.010 41.793 86.570
38.080 52.700 74.111
40.260 57.576 59.046
42.560 60.684 43.717
45.000 62.894 28.419
47.580 64.539 13.361
50.310 65.800 -1.410
53.190 66.786 -15.862
56.230 67.572 -30.054
59.460 68.213 -44.147
62.860 68.737 -58.088
66.460 69.175 -72.039
70.270 69.544 -86.069
74.300 69.857 -100.245
78.550 70.125 -114.592
83.050 70.355 -129.233
87.810 70.554 -144.217
92.840 70.727 -159.588
98.160 70.876 -175.418
103.780 71.005 168.252
109.730 71.118 151.330
116.020 71.214 133.781
122.660 71.297 115.571
129.690 71.367 96.587
137.120 71.425 76.797
144.970 71.473 56.145
153.280 71.510 34.522
162.060 71.537 11.898
171.340 71.554 -11.807
181.160 71.561 -36.698
191.540 71.558 -62.830
202.510 71.542 -90.279
214.110 71.513 -119.149
226.380 71.470 -149.538
239.350 71.409 178.479
253.060 71.329 144.809
267.560 71.225 109.337
282.890 71.095 71.977
299.090 70.934 32.651
316.230 70.738 -8.785
334.340 70.502 -52.369
353.500 70.222 -98.248
373.750 69.894 -146.457
395.160 69.514 162.914
417.800 69.081 109.798
441.730 68.597 54.176
467.040 68.073 -4.024
493.800 67.525 -64.822
522.090 66.984 -128.287
552.000 66.488 165.435
583.620 66.088 96.105
617.050 65.839 23.309
652.400 65.788 -53.605
689.780 65.952 -135.487
729.290 66.290 136.819
771.080 66.722 42.572
815.250 67.150 -58.499
861.950 67.499 -166.470
911.330 67.739 78.712
963.540 67.873 -43.005
1018.740 67.933 -171.899
1077.110 67.920 51.416
1138.810 67.786 -93.622
1204.050 67.444 112.608
1273.030 66.849 -49.780
1345.960 65.987 139.207
1423.070 64.890 -40.463
1504.590 63.562 131.174
1590.790 62.071 -65.885
1681.920 60.550 88.345
1778.280 59.286 -126.738
1880.150 58.556 5.557
1987.870 58.175 120.960
2101.750 57.437 -142.660
2222.150 55.866 -63.800
2349.460 53.198 -0.864
2484.060 49.126 48.093
2626.360 43.163 88.168
2776.820 35.290 139.691
2935.900 34.087 -149.173
3104.100 38.586 -133.703
3281.930 42.440 -167.150
3469.940 44.280 124.986
3668.730 44.288 33.077
3878.910 43.832 -80.860
4101.130 43.241 137.065
4336.070 41.978 -35.188
4584.480 39.682 124.213
4847.120 36.414 -104.164
5124.810 31.192 1.603
5418.400 26.964 117.977
5728.810 31.163 175.662
6057.010 34.629 161.588
6404.000 34.837 84.863
6770.880 31.846 -22.240
7158.770 30.033 -161.065
7568.890 22.912 -4.512
8002.500 21.492 -164.758
8460.950 25.466 -138.036
8945.670 23.538 -113.528
9458.160 23.874 -169.677
10000.000 18.054 42.372
