# Freq(Hz) SPL(dB) Phase (degrees)
10.000 51.566 106.077
10.570 52.363 101.996
11.180 53.151 97.647
11.820 53.913 93.101
12.500 54.654 88.291
13.210 55.362 83.288
13.970 56.049 77.953
14.770 56.701 72.357
15.620 57.319 66.427
16.510 57.888 60.232
17.460 58.414 53.628
18.460 58.880 46.677
19.510 59.275 39.369
20.630 59.590 31.550
21.810 59.803 23.271
23.060 59.887 14.439
24.380 59.802 5.027
25.780 59.489 -5.062
27.260 58.855 -15.851
28.820 57.747 -27.340
30.470 55.859 -39.551
32.220 52.439 -52.348
34.060 44.425 -64.230
36.010 42.538 93.763
38.080 53.443 81.722
40.260 58.316 67.098
42.560 61.420 52.236
45.000 63.627 37.433
47.580 65.267 22.901
50.310 66.524 8.688
53.190 67.504 -5.173
56.230 68.285 -18.739
59.460 68.919 -32.165
62.860 69.436 -45.400
66.460 69.866 -58.600
70.270 70.227 -71.832
74.300 70.531 -85.157
78.550 70.788 -98.602
83.050 71.008 -112.280
87.810 71.195 -126.238
92.840 71.354 -140.515
98.160 71.490 -155.178
103.780 71.605 -170.260
109.730 71.701 174.152
116.020 71.782 158.032
122.660 71.847 141.351
129.690 71.900 124.007
137.120 71.942 105.979
144.970 71.973 87.218
153.280 71.996 67.632
162.060 72.011 47.200
171.340 72.020 25.856
181.160 72.023 3.514
191.540 72.023 -19.869
202.510 72.022 -44.353
214.110 72.021 -70.024
226.380 72.022 -96.965
239.350 72.030 -125.237
253.060 72.047 -154.926
267.560 72.079 173.858
282.890 72.130 141.022
299.090 72.208 106.463
316.230 72.321 70.001
334.340 72.475 31.521
353.500 72.680 -9.224
373.750 72.939 -52.425
395.160 73.256 -98.369
417.800 73.624 -147.371
441.730 74.026 160.267
467.040 74.434 104.198
493.800 74.807 44.185
522.090 75.095 -19.920
552.000 75.249 -88.137
583.620 75.234 -160.347
617.050 75.038 123.622
652.400 74.675 43.901
689.780 74.178 -39.487
729.290 73.583 -126.627
771.080 72.921 142.209
815.250 72.214 46.852
861.950 71.490 -52.950
911.330 70.792 -157.470
963.540 70.182 92.883
1018.740 69.712 -22.684
1077.110 69.383 -145.192
1138.810 69.124 84.515
1204.050 68.841 -54.053
1273.030 68.465 158.992
1345.960 67.976 3.677
1423.070 67.413 -160.001
1504.590 66.898 27.532
1590.790 66.527 -155.376
1681.920 66.157 9.068
1778.280 65.406 160.242
1880.150 64.060 -60.160
1987.870 62.241 69.328
2101.750 60.244 -170.887
2222.150 58.455 -63.137
2349.460 56.606 27.407
2484.060 53.880 101.055
2626.360 49.526 161.286
2776.820 42.493 -142.469
2935.900 37.467 -31.975
3104.100 44.880 9.123
3281.930 48.476 -0.011
3469.940 50.779 -35.282
3668.730 51.980 -98.899
3878.910 51.892 173.366
4101.130 51.128 62.140
4336.070 49.834 -75.831
4584.480 47.491 117.924
4847.120 43.888 -75.638
5124.810 37.262 64.438
5418.400 29.947 -101.326
5728.810 38.195 -0.111
6057.010 41.800 31.410
6404.000 42.719 17.960
6770.880 41.360 -40.980
7158.770 37.158 -142.148
7568.890 28.799 90.022
8002.500 27.609 9.838
8460.950 34.428 136.018
8945.670 35.769 -164.141
9458.160 33.004 -169.668
10000.000 24.029 143.713
