# Freq(Hz) SPL(dB) Phase (degrees)
10.000 52.147 107.465
10.570 52.944 103.463
11.180 53.733 99.198
11.820 54.494 94.741
12.500 55.236 90.026
13.210 55.944 85.122
13.970 56.631 79.893
14.770 57.283 74.407
15.620 57.901 68.596
16.510 58.471 62.525
17.460 58.996 56.053
18.460 59.462 49.241
19.510 59.858 42.079
20.630 60.174 34.416
21.810 60.387 26.302
23.060 60.471 17.644
24.380 60.386 8.417
25.780 60.073 -1.477
27.260 59.440 -12.058
28.820 58.332 -23.329
30.470 56.445 -35.309
32.220 53.026 -47.860
34.060 45.013 -59.484
36.010 43.127 98.784
38.080 54.033 87.034
40.260 58.907 72.719
42.560 62.013 58.182
45.000 64.221 43.726
47.580 65.864 29.561
50.310 67.122 15.736
53.190 68.106 2.287
56.230 68.889 -10.843
59.460 69.527 -23.804
62.860 70.048 -36.548
66.460 70.483 -49.227
70.270 70.849 -61.904
74.300 71.160 -74.640
78.550 71.425 -87.461
83.050 71.653 -100.476
87.810 71.852 -113.728
92.840 72.024 -127.257
98.160 72.175 -141.125
103.780 72.308 -155.366
109.730 72.427 -170.058
116.020 72.533 174.769
122.660 72.630 159.088
129.690 72.720 142.802
137.120 72.805 125.887
144.970 72.888 108.293
153.280 72.972 89.928
162.060 73.059 70.763
171.340 73.151 50.726
181.160 73.251 29.719
191.540 73.363 7.689
202.510 73.487 -15.448
214.110 73.626 -39.794
226.380 73.782 -65.459
239.350 73.955 -92.530
253.060 74.147 -121.121
267.560 74.356 -151.365
282.890 74.580 176.627
299.090 74.819 142.743
316.230 75.070 106.812
334.340 75.330 68.745
353.500 75.596 28.347
373.750 75.864 -14.500
395.160 76.127 -59.983
417.800 76.377 -108.297
441.730 76.598 -159.608
467.040 76.767 145.884
493.800 76.855 88.092
522.090 76.834 27.021
552.000 76.683 -37.206
583.620 76.415 -104.370
617.050 76.080 -174.315
652.400 75.765 112.832
689.780 75.557 36.511
729.290 75.489 -44.167
771.080 75.514 -130.193
815.250 75.527 137.932
861.950 75.418 40.124
911.330 75.128 -63.309
963.540 74.672 -171.982
1018.740 74.116 74.228
1077.110 73.549 -44.972
1138.810 73.043 -170.120
1204.050 72.645 57.879
1273.030 72.343 -82.034
1345.960 72.039 129.362
1423.070 71.642 -28.027
1504.590 71.176 166.022
1590.790 70.765 -9.015
1681.920 70.476 165.241
1778.280 70.141 -32.982
1880.150 69.491 116.224
1987.870 68.456 -106.179
2101.750 67.212 20.133
2222.150 65.899 133.414
2349.460 64.347 -128.499
2484.060 62.260 -45.973
2626.360 59.460 20.871
2776.820 55.567 70.127
2935.900 49.070 96.830
3104.100 37.413 17.806
3281.930 49.506 -47.573
3469.940 54.081 -79.608
3668.730 56.463 -130.163
3878.910 57.450 156.434
4101.130 57.468 60.025
4336.070 56.770 -61.063
4584.480 55.441 151.308
4847.120 53.328 -26.270
5124.810 49.566 122.708
5418.400 42.038 -126.577
5728.810 34.880 -175.794
6057.010 45.271 -149.994
6404.000 48.755 -142.791
6770.880 49.527 -179.613
7158.770 47.801 104.813
7568.890 43.430 -17.870
8002.500 31.363 154.679
8460.950 37.263 150.443
8945.670 42.243 -124.736
9458.160 42.761 -94.573
10000.000 38.894 -126.720
