# Freq(Hz) SPL(dB) Phase (degrees)
10.000 50.667 103.732
10.570 51.464 99.517
11.180 52.253 95.024
11.820 53.015 90.329
12.500 53.757 85.359
13.210 54.465 80.190
13.970 55.153 74.676
14.770 55.805 68.891
15.620 56.424 62.762
16.510 56.994 56.358
17.460 57.520 49.530
18.460 57.987 42.344
19.510 58.383 34.789
20.630 58.700 26.706
21.810 58.914 18.149
23.060 58.999 9.022
24.380 58.916 -0.701
25.780 58.604 -11.121
27.260 57.973 -22.259
28.820 56.867 -34.117
30.470 54.982 -46.719
32.220 51.565 -59.931
34.060 43.554 -72.250
36.010 41.671 85.280
38.080 52.579 72.746
40.260 57.456 57.602
42.560 60.565 42.190
45.000 62.777 26.804
47.580 64.424 11.652
50.310 65.687 -3.218
53.190 66.675 -17.775
56.230 67.463 -32.077
59.460 68.107 -46.288
62.860 68.634 -60.353
66.460 69.075 -74.436
70.270 69.448 -88.607
74.300 69.765 -102.932
78.550 70.037 -117.436
83.050 70.273 -132.245
87.810 70.478 -147.406
92.840 70.656 -162.966
98.160 70.813 -178.998
103.780 70.950 164.459
109.730 71.071 147.309
116.020 71.178 129.517
122.660 71.272 111.050
129.690 71.354 91.789
137.120 71.427 71.705
144.970 71.490 50.737
153.280 71.545 28.776
162.060 71.592 5.791
171.340 71.631 -18.303
181.160 71.663 -43.613
191.540 71.687 -70.196
202.510 71.702 -98.133
214.110 71.709 -127.532
226.380 71.705 -158.497
239.350 71.689 168.891
253.060 71.659 134.531
267.560 71.613 98.296
282.890 71.548 60.089
299.090 71.461 19.813
316.230 71.349 -22.697
334.340 71.208 -67.509
353.500 71.034 -114.810
373.750 70.823 -164.689
395.160 70.571 142.693
417.800 70.270 87.173
441.730 69.912 28.619
467.040 69.486 -33.170
493.800 68.974 -98.326
522.090 68.355 -166.963
552.000 67.601 120.861
583.620 66.686 45.217
617.050 65.595 -33.693
652.400 64.337 -115.534
689.780 62.970 160.158
729.290 61.627 73.845
771.080 60.542 -14.612
815.250 59.979 -106.442
861.950 60.040 155.932
911.330 60.608 50.340
963.540 61.483 -64.411
1018.740 62.523 171.163
1077.110 63.591 36.447
1138.810 64.520 -108.828
1204.050 65.152 95.506
1273.030 65.444 -69.852
1345.960 65.424 115.253
1423.070 65.165 -69.298
1504.590 64.677 95.910
1590.790 63.956 -109.908
1681.920 62.922 32.564
1778.280 61.432 163.309
1880.150 59.467 -76.853
1987.870 57.152 32.872
2101.750 54.769 132.143
2222.150 52.629 -141.193
2349.460 50.669 -70.819
2484.060 48.285 -18.686
2626.360 44.777 17.906
2776.820 39.927 50.033
2935.900 37.988 88.296
3104.100 40.151 87.138
3281.930 41.345 48.851
3469.940 41.609 -12.094
3668.730 42.600 -102.095
3878.910 43.307 135.707
4101.130 42.750 -18.657
4336.070 41.113 161.786
4584.480 39.198 -45.470
4847.120 36.552 71.572
5124.810 31.200 160.724
5418.400 26.346 -97.723
5728.810 28.366 -51.742
6057.010 30.608 -63.088
6404.000 31.937 -140.983
6770.880 31.783 91.568
7158.770 27.515 -73.811
7568.890 20.576 76.580
8002.500 19.581 -101.973
8460.950 24.873 -73.425
8945.670 23.767 -119.135
9458.160 22.343 -175.022
10000.000 11.603 55.511
