# Freq(Hz) SPL(dB) Phase (degrees)
10.000 51.345 105.525
10.570 52.142 101.413
11.180 52.931 97.029
11.820 53.692 92.448
12.500 54.434 87.601
13.210 55.141 82.559
13.970 55.829 77.182
14.770 56.481 71.541
15.620 57.098 65.564
16.510 57.668 59.320
17.460 58.194 52.663
18.460 58.659 45.657
19.510 59.054 38.290
20.630 59.370 30.409
21.810 59.583 22.064
23.060 59.667 13.163
24.380 59.582 3.678
25.780 59.269 -6.489
27.260 58.635 -17.361
28.820 57.527 -28.937
30.470 55.640 -41.240
32.220 52.220 -54.135
34.060 44.206 -66.120
36.010 42.320 91.763
38.080 53.224 79.606
40.260 58.098 64.859
42.560 61.202 49.867
45.000 63.409 34.926
47.580 65.050 20.248
50.310 66.307 5.879
53.190 67.288 -8.147
56.230 68.069 -21.888
59.460 68.703 -35.500
62.860 69.221 -48.932
66.460 69.651 -62.342
70.270 70.012 -75.797
74.300 70.316 -89.360
78.550 70.574 -103.057
83.050 70.793 -117.005
87.810 70.980 -131.249
92.840 71.139 -145.833
98.160 71.274 -160.822
103.780 71.388 -176.254
109.730 71.483 167.785
116.020 71.561 151.266
122.660 71.623 134.158
129.690 71.672 116.358
137.120 71.707 97.840
144.970 71.731 78.556
153.280 71.743 58.410
162.060 71.744 37.380
171.340 71.735 15.399
181.160 71.716 -7.623
191.540 71.687 -31.726
202.510 71.650 -56.971
214.110 71.605 -83.439
226.380 71.551 -111.206
239.350 71.492 -140.326
253.060 71.429 -170.867
267.560 71.365 157.082
282.890 71.304 123.454
299.090 71.256 88.184
316.230 71.228 51.130
334.340 71.235 12.220
353.500 71.293 -28.756
373.750 71.418 -71.973
395.160 71.625 -117.731
417.800 71.923 -166.392
441.730 72.306 141.654
467.040 72.749 85.953
493.800 73.210 26.159
522.090 73.634 -37.964
552.000 73.965 -106.510
583.620 74.159 -179.419
617.050 74.198 103.421
652.400 74.085 22.071
689.780 73.838 -63.527
729.290 73.471 -153.522
771.080 72.983 111.782
815.250 72.356 12.278
861.950 71.574 -92.088
911.330 70.647 158.794
963.540 69.623 45.106
1018.740 68.615 -73.225
1077.110 67.765 163.243
1138.810 67.191 33.302
1204.050 66.899 -104.795
1273.030 66.763 107.428
1345.960 66.579 -50.746
1423.070 66.173 140.768
1504.590 65.463 -37.380
1590.790 64.494 135.485
1681.920 63.474 -60.437
1778.280 62.656 93.235
1880.150 62.043 -126.461
1987.870 61.264 -1.998
2101.750 59.813 106.926
2222.150 57.424 -157.016
2349.460 54.327 -71.249
2484.060 50.883 4.203
2626.360 46.880 65.956
2776.820 40.832 122.863
2935.900 37.952 -148.872
3104.100 43.464 -113.271
3281.930 47.462 -128.097
3469.940 49.556 -175.613
3668.730 49.815 113.085
3878.910 49.396 21.185
4101.130 48.700 -96.865
4336.070 47.181 116.985
4584.480 44.638 -55.166
4847.120 41.507 105.196
5124.810 35.107 -120.915
5418.400 30.151 47.723
5728.810 36.579 134.609
6057.010 38.341 156.916
6404.000 40.219 133.981
6770.880 38.491 62.367
7158.770 34.712 -52.580
7568.890 24.176 -171.665
8002.500 25.960 55.118
8460.950 31.498 174.523
8945.670 30.358 -152.834
9458.160 30.767 -165.361
10000.000 19.498 142.929
