# Freq(Hz) SPL(dB) Phase (degrees)
10.000 50.529 103.348
10.570 51.326 99.111
11.180 52.115 94.595
11.820 52.877 89.875
12.500 53.619 84.879
13.210 54.328 79.682
13.970 55.016 74.139
14.770 55.668 68.324
15.620 56.287 62.162
16.510 56.857 55.724
17.460 57.384 48.860
18.460 57.851 41.635
19.510 58.247 34.039
20.630 58.565 25.913
21.810 58.779 17.310
23.060 58.865 8.136
24.380 58.782 -1.638
25.780 58.471 -12.112
27.260 57.840 -23.307
28.820 56.735 -35.225
30.470 54.851 -47.891
32.220 51.435 -61.170
34.060 43.425 -73.560
36.010 41.543 83.895
38.080 52.453 71.281
40.260 57.332 56.053
42.560 60.443 40.552
45.000 62.656 25.072
47.580 64.305 9.821
50.310 65.570 -5.156
53.190 66.561 -19.824
56.230 67.353 -34.244
59.460 67.999 -48.581
62.860 68.530 -62.778
66.460 68.976 -77.001
70.270 69.353 -91.320
74.300 69.676 -105.801
78.550 69.953 -120.472
83.050 70.196 -135.457
87.810 70.408 -150.805
92.840 70.595 -166.563
98.160 70.760 177.196
103.780 70.908 160.431
109.730 71.041 143.045
116.020 71.160 125.003
122.660 71.268 106.270
129.690 71.367 86.728
137.120 71.457 66.345
144.970 71.540 45.060
153.280 71.618 22.761
162.060 71.690 -0.584
171.340 71.758 -25.059
181.160 71.822 -50.776
191.540 71.882 -77.792
202.510 71.938 -106.192
214.110 71.990 -136.084
226.380 72.038 -167.578
239.350 72.081 159.245
253.060 72.119 124.276
267.560 72.149 87.387
282.890 72.170 48.472
299.090 72.183 7.429
316.230 72.184 -35.919
334.340 72.175 -81.651
353.500 72.152 -129.973
373.750 72.117 179.005
395.160 72.068 125.090
417.800 72.003 68.080
441.730 71.917 7.786
467.040 71.803 -56.061
493.800 71.649 -123.677
522.090 71.437 164.719
552.000 71.143 88.933
583.620 70.748 8.838
617.050 70.241 -75.667
652.400 69.622 -164.721
689.780 68.902 101.458
729.290 68.089 2.566
771.080 67.177 -101.931
815.250 66.140 147.496
861.950 64.924 30.228
911.330 63.448 -94.401
963.540 61.596 132.759
1018.740 59.144 -9.744
1077.110 55.689 -164.803
1138.810 50.730 18.724
1204.050 47.524 160.114
1273.030 51.107 -52.456
1345.960 54.228 113.773
1423.070 56.234 -80.790
1504.590 57.538 77.464
1590.790 58.412 -134.298
1681.920 58.936 2.154
1778.280 59.042 125.639
1880.150 58.654 -124.025
1987.870 57.810 -27.169
2101.750 56.440 55.515
2222.150 54.535 123.965
2349.460 51.908 177.859
2484.060 48.457 -141.936
2626.360 43.996 -112.399
2776.820 38.903 -84.399
2935.900 37.129 -54.558
3104.100 39.436 -64.181
3281.930 40.921 -116.082
3469.940 41.264 164.330
3668.730 40.500 58.317
3878.910 38.868 -69.197
4101.130 36.763 141.735
4336.070 36.270 -32.564
4584.480 36.365 112.091
4847.120 34.751 -145.236
5124.810 30.242 -68.451
5418.400 26.640 14.354
5728.810 30.748 40.146
6057.010 33.503 -5.898
6404.000 34.070 -108.718
6770.880 32.345 108.711
7158.770 25.744 -78.337
7568.890 17.999 67.889
8002.500 18.700 -140.126
8460.950 24.641 -109.348
8945.670 27.775 170.762
9458.160 21.647 39.697
10000.000 11.727 -96.473
