# Freq(Hz) SPL(dB) Phase (degrees)
10.000 51.680 106.358
10.570 52.477 102.293
11.180 53.266 97.961
11.820 54.027 93.433
12.500 54.769 88.642
13.210 55.476 83.660
13.970 56.164 78.346
14.770 56.815 72.772
15.620 57.433 66.866
16.510 58.003 60.697
17.460 58.528 54.119
18.460 58.994 47.196
19.510 59.389 39.918
20.630 59.705 32.130
21.810 59.918 23.884
23.060 60.001 15.088
24.380 59.916 5.714
25.780 59.603 -4.336
27.260 58.969 -15.083
28.820 57.861 -26.527
30.470 55.973 -38.692
32.220 52.554 -51.439
34.060 44.540 -63.269
36.010 42.653 94.780
38.080 53.557 82.798
40.260 58.431 68.237
42.560 61.535 53.441
45.000 63.742 38.709
47.580 65.382 24.251
50.310 66.639 10.117
53.190 67.620 -3.660
56.230 68.400 -17.138
59.460 69.034 -30.469
62.860 69.552 -43.604
66.460 69.982 -56.697
70.270 70.343 -69.816
74.300 70.648 -83.020
78.550 70.906 -96.337
83.050 71.126 -109.879
87.810 71.314 -123.692
92.840 71.475 -137.814
98.160 71.612 -152.312
103.780 71.729 -167.219
109.730 71.828 177.381
116.020 71.912 161.460
122.660 71.981 144.992
129.690 72.039 127.875
137.120 72.087 110.088
144.970 72.126 91.583
153.280 72.157 72.268
162.060 72.184 52.124
171.340 72.206 31.082
181.160 72.226 9.056
191.540 72.246 -13.998
202.510 72.268 -38.144
214.110 72.295 -63.471
226.380 72.329 -90.068
239.350 72.375 -118.004
253.060 72.435 -147.373
267.560 72.514 -178.295
282.890 72.617 149.124
299.090 72.748 114.771
316.230 72.912 78.457
334.340 73.115 40.061
353.500 73.360 -0.659
373.750 73.649 -43.885
395.160 73.979 -89.884
417.800 74.342 -138.940
441.730 74.720 168.679
467.040 75.084 112.662
493.800 75.395 52.809
522.090 75.604 -10.993
552.000 75.668 -78.733
583.620 75.553 -150.255
617.050 75.254 134.654
652.400 74.796 56.168
689.780 74.227 -25.666
729.290 73.605 -110.952
771.080 72.985 159.920
815.250 72.404 66.552
861.950 71.883 -31.616
911.330 71.426 -135.111
963.540 71.034 115.591
1018.740 70.700 -0.102
1077.110 70.395 -122.799
1138.810 70.062 107.121
1204.050 69.663 -30.515
1273.030 69.209 -175.798
1345.960 68.745 30.931
1423.070 68.325 -131.007
1504.590 67.984 57.304
1590.790 67.646 -125.770
1681.920 67.044 38.849
1778.280 65.894 -167.813
1880.150 64.307 -23.259
1987.870 62.812 112.100
2101.750 61.593 -125.668
2222.150 60.259 -19.671
2349.460 58.306 69.866
2484.060 55.274 145.070
2626.360 51.102 -152.513
2776.820 44.503 -100.588
2935.900 34.157 9.870
3104.100 44.553 76.296
3281.930 49.585 68.112
3469.940 52.111 30.639
3668.730 53.000 -30.014
3878.910 53.084 -113.279
4101.130 52.419 138.123
4336.070 51.015 4.471
4584.480 49.015 -156.608
4847.120 45.714 10.489
5124.810 38.867 151.405
5418.400 27.620 -4.413
5728.810 39.015 112.952
6057.010 42.870 145.654
6404.000 43.985 136.902
6770.880 42.890 83.148
7158.770 39.178 -12.474
7568.890 30.039 -142.196
8002.500 28.684 164.412
8460.950 36.102 -67.557
8945.670 37.318 -3.372
9458.160 34.964 -1.298
10000.000 25.755 -51.561
