# Freq(Hz) SPL(dB) Phase (degrees)
10.000 50.957 104.516
10.570 51.754 100.346
11.180 52.542 95.901
11.820 53.304 91.256
12.500 54.046 86.339
13.210 54.754 81.226
13.970 55.441 75.772
14.770 56.093 70.050
15.620 56.711 63.987
16.510 57.281 57.653
17.460 57.807 50.900
18.460 58.273 43.793
19.510 58.669 36.320
20.630 58.985 28.325
21.810 59.198 19.861
23.060 59.283 10.832
24.380 59.198 1.213
25.780 58.886 -9.096
27.260 58.253 -20.118
28.820 57.146 -31.853
30.470 55.260 -44.325
32.220 51.841 -57.398
34.060 43.829 -69.572
36.010 41.943 88.112
38.080 52.849 75.743
40.260 57.725 60.772
42.560 60.831 45.543
45.000 63.040 30.350
47.580 64.683 15.405
50.310 65.942 0.752
53.190 66.926 -13.573
56.230 67.710 -27.632
59.460 68.348 -41.583
62.860 68.870 -55.374
66.460 69.304 -69.165
70.270 69.670 -83.027
74.300 69.979 -97.022
78.550 70.242 -111.178
83.050 70.467 -125.616
87.810 70.661 -140.383
92.840 70.827 -155.523
98.160 70.970 -171.108
103.780 71.092 172.824
109.730 71.196 156.182
116.020 71.283 138.932
122.660 71.355 121.042
129.690 71.414 102.401
137.120 71.459 82.980
144.970 71.493 62.723
153.280 71.515 41.525
162.060 71.525 19.361
171.340 71.523 -3.847
181.160 71.509 -28.199
191.540 71.482 -53.745
202.510 71.441 -80.556
214.110 71.385 -108.726
226.380 71.311 -138.347
239.350 71.217 -169.480
253.060 71.102 157.793
267.560 70.961 123.374
282.890 70.792 87.200
299.090 70.593 49.217
316.230 70.361 9.317
334.340 70.097 -32.502
353.500 69.802 -76.334
373.750 69.487 -122.171
395.160 69.166 -170.063
417.800 68.866 139.918
441.730 68.628 87.649
467.040 68.497 32.796
493.800 68.511 -25.126
522.090 68.675 -86.749
552.000 68.954 -152.681
583.620 69.291 136.683
617.050 69.634 61.150
652.400 69.957 -19.404
689.780 70.246 -105.150
729.290 70.491 163.673
771.080 70.667 66.690
815.250 70.736 -36.276
861.950 70.661 -145.376
911.330 70.426 99.340
963.540 70.030 -22.203
1018.740 69.495 -150.221
1077.110 68.817 74.897
1138.810 67.966 -67.098
1204.050 66.898 143.757
1273.030 65.643 -12.134
1345.960 64.317 -174.478
1423.070 63.168 16.366
1504.590 62.453 -161.284
1590.790 62.238 9.211
1681.920 62.218 164.891
1778.280 61.938 -55.088
1880.150 61.120 69.868
1987.870 59.472 -179.742
2101.750 56.719 -82.246
2222.150 52.693 6.562
2349.460 48.120 93.657
2484.060 45.119 175.668
2626.360 43.034 -124.445
2776.820 39.934 -77.901
2935.900 38.981 -31.235
3104.100 41.250 -19.600
3281.930 43.215 -40.115
3469.940 45.600 -91.103
3668.730 46.980 -177.225
3878.910 46.782 68.593
4101.130 45.349 -69.538
4336.070 43.061 129.539
4584.480 40.853 -57.927
4847.120 37.877 81.845
5124.810 32.064 -164.758
5418.400 27.654 -26.711
5728.810 32.741 39.812
6057.010 35.448 36.012
6404.000 35.583 -11.840
6770.880 34.487 -107.801
7158.770 30.978 107.673
7568.890 24.335 -65.602
8002.500 21.105 135.240
8460.950 26.604 -127.950
8945.670 24.357 -134.276
9458.160 26.001 -174.778
10000.000 18.073 89.240
