# Freq(Hz) SPL(dB) Phase (degrees)
10.000 50.874 104.295
10.570 51.671 100.113
11.180 52.460 95.654
11.820 53.221 90.994
12.500 53.964 86.063
13.210 54.671 80.933
13.970 55.359 75.463
14.770 56.011 69.723
15.620 56.629 63.642
16.510 57.199 57.288
17.460 57.725 50.514
18.460 58.191 43.384
19.510 58.587 35.888
20.630 58.904 27.868
21.810 59.117 19.377
23.060 59.201 10.321
24.380 59.117 0.673
25.780 58.805 -9.668
27.260 58.173 -20.723
28.820 57.066 -32.492
30.470 55.180 -45.001
32.220 51.762 -58.113
34.060 43.749 -70.328
36.010 41.865 87.313
38.080 52.771 74.896
40.260 57.647 59.877
42.560 60.754 44.596
45.000 62.964 29.349
47.580 64.607 14.345
50.310 65.868 -0.370
53.190 66.853 -14.761
56.230 67.638 -28.889
59.460 68.277 -42.914
62.860 68.800 -56.782
66.460 69.236 -70.657
70.270 69.603 -84.606
74.300 69.914 -98.695
78.550 70.179 -112.950
83.050 70.407 -127.494
87.810 70.604 -142.374
92.840 70.773 -157.635
98.160 70.919 -173.348
103.780 71.044 170.448
109.730 71.152 153.660
116.020 71.244 136.254
122.660 71.321 118.197
129.690 71.385 99.376
137.120 71.437 79.762
144.970 71.477 59.298
153.280 71.506 37.877
162.060 71.524 15.471
171.340 71.531 -7.998
181.160 71.526 -32.635
191.540 71.510 -58.489
202.510 71.480 -85.637
214.110 71.436 -114.178
226.380 71.375 -144.206
239.350 71.295 -175.789
253.060 71.194 150.983
267.560 71.067 116.004
282.890 70.912 79.200
299.090 70.725 40.503
316.230 70.501 -0.212
334.340 70.237 -42.963
353.500 69.932 -87.868
373.750 69.585 -134.930
395.160 69.200 175.798
417.800 68.789 124.283
441.730 68.373 70.511
467.040 67.988 14.352
493.800 67.680 -44.394
522.090 67.491 -106.120
552.000 67.444 -171.381
583.620 67.532 119.261
617.050 67.730 45.319
652.400 68.010 -33.618
689.780 68.346 -117.934
729.290 68.704 152.009
771.080 69.039 55.791
815.250 69.295 -46.753
861.950 69.430 -155.737
911.330 69.424 88.819
963.540 69.282 -33.173
1018.740 69.031 -161.980
1077.110 68.670 61.878
1138.810 68.159 -82.039
1204.050 67.428 125.999
1273.030 66.448 -33.805
1345.960 65.229 158.742
1423.070 63.864 -16.164
1504.590 62.494 161.592
1590.790 61.410 -28.896
1681.920 60.819 129.616
1778.280 60.593 -86.342
1880.150 60.306 41.135
1987.870 59.610 151.647
2101.750 58.037 -114.331
2222.150 55.321 -34.805
2349.460 51.243 32.876
2484.060 45.595 93.855
2626.360 39.229 159.652
2776.820 36.072 -128.845
2935.900 37.646 -78.990
3104.100 41.343 -75.807
3281.930 43.417 -111.176
3469.940 43.921 -168.202
3668.730 44.658 112.265
3878.910 45.410 0.488
4101.130 44.958 -142.757
4336.070 43.252 46.037
4584.480 40.595 -150.989
4847.120 36.712 -13.913
5124.810 31.350 103.429
5418.400 28.287 -140.431
5728.810 32.097 -82.808
6057.010 33.342 -86.220
6404.000 33.757 -132.670
6770.880 34.013 115.890
7158.770 29.923 -25.017
7568.890 23.104 149.324
8002.500 22.823 -34.802
8460.950 25.651 53.978
8945.670 26.877 50.364
9458.160 15.813 25.517
10000.000 16.560 -111.097
