# Freq(Hz) SPL(dB) Phase (degrees)
10.000 51.454 105.799
10.570 52.251 101.702
11.180 53.039 97.335
11.820 53.801 92.772
12.500 54.543 87.943
13.210 55.250 82.920
13.970 55.937 77.564
14.770 56.589 71.945
15.620 57.207 65.992
16.510 57.776 59.772
17.460 58.302 53.142
18.460 58.768 46.163
19.510 59.163 38.825
20.630 59.479 30.974
21.810 59.691 22.662
23.060 59.775 13.795
24.380 59.690 4.347
25.780 59.377 -5.782
27.260 58.743 -16.612
28.820 57.635 -28.145
30.470 55.747 -40.403
32.220 52.328 -53.249
34.060 44.314 -65.183
36.010 42.427 92.755
38.080 53.331 80.655
40.260 58.205 65.969
42.560 61.309 51.041
45.000 63.516 36.169
47.580 65.156 21.564
50.310 66.413 7.271
53.190 67.394 -6.673
56.230 68.174 -20.327
59.460 68.808 -33.846
62.860 69.326 -47.181
66.460 69.756 -60.487
70.270 70.116 -73.831
74.300 70.420 -87.276
78.550 70.677 -100.848
83.050 70.896 -114.662
87.810 71.083 -128.764
92.840 71.242 -143.195
98.160 71.377 -158.023
103.780 71.491 -173.281
109.730 71.586 170.944
116.020 71.664 154.623
122.660 71.728 137.728
129.690 71.778 120.156
137.120 71.815 101.883
144.970 71.841 82.861
153.280 71.857 62.996
162.060 71.864 42.267
171.340 71.862 20.608
181.160 71.852 -2.069
191.540 71.836 -25.803
202.510 71.814 -50.657
214.110 71.788 -76.710
226.380 71.760 -104.044
239.350 71.732 -132.712
253.060 71.706 -162.792
267.560 71.689 165.618
282.890 71.685 132.438
299.090 71.701 97.583
316.230 71.748 60.888
334.340 71.837 22.255
353.500 71.979 -18.554
373.750 72.185 -61.730
395.160 72.464 -107.575
417.800 72.813 -156.433
441.730 73.220 151.352
467.040 73.658 95.386
493.800 74.084 35.386
522.090 74.446 -28.833
552.000 74.692 -97.325
583.620 74.782 -170.002
617.050 74.702 113.275
652.400 74.459 32.596
689.780 74.076 -52.059
729.290 73.575 -140.801
771.080 72.967 126.100
815.250 72.251 28.554
861.950 71.433 -73.514
911.330 70.549 179.909
963.540 69.680 68.767
1018.740 68.940 -47.469
1077.110 68.419 -169.888
1138.810 68.109 60.156
1204.050 67.909 -78.498
1273.030 67.679 133.572
1345.960 67.300 -23.689
1423.070 66.714 170.042
1504.590 65.979 -4.742
1590.790 65.296 171.572
1681.920 64.802 -23.044
1778.280 64.316 128.920
1880.150 63.489 -93.039
1987.870 62.094 31.654
2101.750 59.985 144.590
2222.150 57.410 -111.960
2349.460 54.953 -19.562
2484.060 52.297 55.278
2626.360 48.234 114.379
2776.820 41.270 170.639
2935.900 37.866 -84.092
3104.100 44.899 -50.316
3281.930 48.407 -67.245
3469.940 49.783 -108.044
3668.730 50.549 -170.910
3878.910 50.702 98.846
4101.130 49.821 -16.984
4336.070 48.341 -156.900
4584.480 46.407 33.707
4847.120 42.798 -167.443
5124.810 35.843 -26.530
5418.400 30.042 154.344
5728.810 37.240 -109.224
6057.010 40.860 -80.353
6404.000 41.127 -103.744
6770.880 39.809 -168.275
7158.770 35.806 86.927
7568.890 27.797 -44.883
8002.500 26.552 -145.118
8460.950 32.750 -23.299
8945.670 33.845 30.874
9458.160 32.100 14.734
10000.000 20.490 -31.643
