# Freq(Hz) SPL(dB) Phase (degrees)
10.000 52.147 107.465
10.570 52.944 103.463
11.180 53.733 99.198
11.820 54.494 94.741
12.500 55.236 90.026
13.210 55.944 85.122
13.970 56.631 79.893
14.770 57.283 74.407
15.620 57.901 68.596
16.510 58.471 62.525
17.460 58.996 56.053
18.460 59.462 49.241
19.510 59.858 42.079
20.630 60.174 34.416
21.810 60.387 26.302
23.060 60.471 17.644
24.380 60.386 8.417
25.780 60.073 -1.477
27.260 59.440 -12.058
28.820 58.332 -23.329
30.470 56.445 -35.309
32.220 53.026 -47.860
34.060 45.013 -59.484
36.010 43.127 98.784
38.080 54.033 87.034
40.260 58.907 72.719
42.560 62.013 58.182
45.000 64.221 43.726
47.580 65.864 29.561
50.310 67.122 15.736
53.190 68.106 2.287
56.230 68.889 -10.843
59.460 69.527 -23.804
62.860 70.048 -36.548
66.460 70.483 -49.226
70.270 70.849 -61.904
74.300 71.160 -74.640
78.550 71.425 -87.461
83.050 71.653 -100.476
87.810 71.852 -113.728
92.840 72.024 -127.257
98.160 72.175 -141.125
103.780 72.308 -155.366
109.730 72.427 -170.058
116.020 72.533 174.769
122.660 72.630 159.088
129.690 72.720 142.803
137.120 72.805 125.887
144.970 72.888 108.293
153.280 72.972 89.928
162.060 73.059 70.763
171.340 73.151 50.726
181.160 73.251 29.720
191.540 73.362 7.689
202.510 73.487 -15.447
214.110 73.626 -39.794
226.380 73.782 -65.458
239.350 73.955 -92.530
253.060 74.147 -121.121
267.560 74.356 -151.364
282.890 74.580 176.627
299.090 74.819 142.744
316.230 75.070 106.813
334.340 75.330 68.746
353.500 75.596 28.348
373.750 75.864 -14.499
395.160 76.127 -59.982
417.800 76.377 -108.296
441.730 76.598 -159.607
467.040 76.767 145.885
493.800 76.855 88.092
522.090 76.834 27.021
552.000 76.684 -37.206
583.620 76.415 -104.370
617.050 76.080 -174.315
652.400 75.765 112.831
689.780 75.557 36.511
729.290 75.489 -44.168
771.080 75.514 -130.195
815.250 75.527 137.931
861.950 75.418 40.123
911.330 75.128 -63.311
963.540 74.672 -171.985
1018.740 74.116 74.226
1077.110 73.549 -44.972
1138.810 73.042 -170.119
1204.050 72.645 57.882
1273.030 72.343 -82.030
1345.960 72.039 129.363
1423.070 71.643 -28.029
1504.590 71.174 166.013
1590.790 70.764 -9.014
1681.920 70.476 165.243
1778.280 70.138 -32.974
1880.150 69.490 116.213
1987.870 68.456 -106.174
2101.750 67.212 20.136
2222.150 65.899 133.415
2349.460 64.362 -128.409
2484.060 62.260 -45.975
2626.360 59.460 20.874
2776.820 55.567 70.136
2935.900 49.070 96.821
3104.100 37.418 17.817
3281.930 49.501 -47.524
3469.940 54.082 -79.597
3668.730 56.463 -130.159
3878.910 57.451 156.431
4101.130 57.468 60.000
4336.070 56.766 -61.084
4584.480 55.439 151.313
4847.120 53.328 -26.257
5124.810 49.567 122.717
5418.400 42.023 -126.523
5728.810 34.556 -173.762
6057.010 45.277 -149.977
6404.000 48.761 -142.813
6770.880 49.535 -179.607
7158.770 47.863 104.688
7568.890 43.427 -17.592
8002.500 31.337 155.733
8460.950 37.234 149.011
8945.670 42.236 -124.692
9458.160 42.720 -95.474
10000.000 38.956 -126.076
