# Freq(Hz) SPL(dB) Phase (degrees)
10.000 50.529 103.348
10.570 51.326 99.111
11.180 52.115 94.595
11.820 52.877 89.875
12.500 53.619 84.879
13.210 54.328 79.682
13.970 55.016 74.139
14.770 55.668 68.324
15.620 56.287 62.162
16.510 56.857 55.724
17.460 57.384 48.860
18.460 57.851 41.635
19.510 58.247 34.039
20.630 58.565 25.913
21.810 58.779 17.310
23.060 58.865 8.136
24.380 58.782 -1.638
25.780 58.471 -12.112
27.260 57.840 -23.307
28.820 56.735 -35.225
30.470 54.851 -47.891
32.220 51.435 -61.170
34.060 43.425 -73.560
36.010 41.543 83.895
38.080 52.453 71.281
40.260 57.332 56.053
42.560 60.443 40.552
45.000 62.656 25.072
47.580 64.305 9.821
50.310 65.570 -5.156
53.190 66.561 -19.824
56.230 67.353 -34.244
59.460 67.999 -48.581
62.860 68.530 -62.778
66.460 68.976 -77.001
70.270 69.353 -91.320
74.300 69.676 -105.801
78.550 69.953 -120.472
83.050 70.196 -135.457
87.810 70.408 -150.805
92.840 70.595 -166.563
98.160 70.760 177.196
103.780 70.908 160.431
109.730 71.041 143.045
116.020 71.160 125.003
122.660 71.268 106.270
129.690 71.367 86.728
137.120 71.457 66.345
144.970 71.540 45.060
153.280 71.618 22.761
162.060 71.690 -0.584
171.340 71.758 -25.059
181.160 71.822 -50.776
191.540 71.882 -77.792
202.510 71.938 -106.192
214.110 71.990 -136.084
226.380 72.038 -167.578
239.350 72.081 159.245
253.060 72.119 124.277
267.560 72.149 87.387
282.890 72.170 48.472
299.090 72.183 7.430
316.230 72.184 -35.919
334.340 72.175 -81.651
353.500 72.153 -129.973
373.750 72.117 179.006
395.160 72.068 125.091
417.800 72.003 68.080
441.730 71.917 7.787
467.040 71.803 -56.060
493.800 71.649 -123.676
522.090 71.437 164.720
552.000 71.143 88.934
583.620 70.748 8.840
617.050 70.241 -75.665
652.400 69.622 -164.720
689.780 68.902 101.460
729.290 68.089 2.568
771.080 67.177 -101.928
815.250 66.140 147.499
861.950 64.924 30.232
911.330 63.448 -94.396
963.540 61.596 132.767
1018.740 59.145 -9.732
1077.110 55.688 -164.782
1138.810 50.727 18.760
1204.050 47.514 160.113
1273.030 51.101 -52.489
1345.960 54.224 113.740
1423.070 56.233 -80.822
1504.590 57.536 77.420
1590.790 58.409 -134.319
1681.920 58.933 2.135
1778.280 59.040 125.635
1880.150 58.649 -123.990
1987.870 57.807 -27.182
2101.750 56.436 55.497
2222.150 54.530 123.951
2349.460 51.905 177.849
2484.060 48.453 -141.933
2626.360 43.992 -112.393
2776.820 38.920 -84.402
2935.900 37.129 -54.529
3104.100 39.437 -64.162
3281.930 41.137 -115.232
3469.940 41.274 164.392
3668.730 40.494 58.655
3878.910 38.673 -69.419
4101.130 36.781 141.248
4336.070 36.295 -32.778
4584.480 36.345 112.067
4847.120 34.781 -145.409
5124.810 30.149 -68.454
5418.400 26.694 14.083
5728.810 30.802 39.873
6057.010 33.541 -5.585
6404.000 34.058 -108.316
6770.880 32.331 109.126
7158.770 26.120 -80.493
7568.890 18.668 72.744
8002.500 18.839 -141.242
8460.950 24.888 -110.710
8945.670 27.915 170.430
9458.160 22.069 35.029
10000.000 7.614 -96.154
