# Freq(Hz) SPL(dB) Phase (degrees)
10.000 51.046 104.752
10.570 51.843 100.595
11.180 52.631 96.164
11.820 53.393 91.534
12.500 54.135 86.634
13.210 54.843 81.537
13.970 55.530 76.101
14.770 56.182 70.398
15.620 56.800 64.355
16.510 57.370 58.042
17.460 57.896 51.312
18.460 58.362 44.228
19.510 58.757 36.779
20.630 59.073 28.811
21.810 59.286 20.375
23.060 59.370 11.376
24.380 59.286 1.788
25.780 58.973 -8.488
27.260 58.340 -19.475
28.820 57.233 -31.173
30.470 55.346 -43.605
32.220 51.927 -56.637
34.060 43.914 -68.767
36.010 42.029 88.964
38.080 52.934 76.643
40.260 57.809 61.725
42.560 60.915 46.551
45.000 63.123 31.417
47.580 64.765 16.534
50.310 66.024 1.947
53.190 67.007 -12.309
56.230 67.790 -26.294
59.460 68.426 -40.166
62.860 68.947 -53.873
66.460 69.380 -67.576
70.270 69.744 -81.343
74.300 70.051 -95.238
78.550 70.313 -109.288
83.050 70.536 -123.612
87.810 70.727 -138.258
92.840 70.891 -153.270
98.160 71.031 -168.717
103.780 71.149 175.362
109.730 71.250 158.878
116.020 71.333 141.796
122.660 71.401 124.087
129.690 71.455 105.640
137.120 71.496 86.427
144.970 71.524 66.394
153.280 71.540 45.440
162.060 71.544 23.538
171.340 71.536 0.614
181.160 71.515 -23.429
191.540 71.481 -48.638
202.510 71.432 -75.080
214.110 71.369 -102.847
226.380 71.288 -132.023
239.350 71.188 -162.665
253.060 71.068 165.152
267.560 70.925 131.340
282.890 70.759 95.844
299.090 70.568 58.618
316.230 70.354 19.565
334.340 70.122 -21.309
353.500 69.883 -64.104
373.750 69.652 -108.830
395.160 69.456 -155.597
417.800 69.331 155.416
441.730 69.317 103.918
467.040 69.444 49.389
493.800 69.714 -8.765
522.090 70.090 -71.134
552.000 70.509 -138.136
583.620 70.907 150.064
617.050 71.240 73.451
652.400 71.493 -7.990
689.780 71.669 -94.375
729.290 71.768 174.085
771.080 71.774 77.018
815.250 71.654 -25.761
861.950 71.376 -134.409
911.330 70.919 111.031
963.540 70.282 -9.460
1018.740 69.484 -136.001
1077.110 68.527 91.201
1138.810 67.413 -47.861
1204.050 66.169 167.000
1273.030 64.953 16.024
1345.960 64.018 -141.557
1423.070 63.555 51.867
1504.590 63.475 -126.578
1590.790 63.469 41.093
1681.920 63.169 -165.698
1778.280 62.254 -26.262
1880.150 60.561 100.817
1987.870 57.951 -142.460
2101.750 54.600 -31.969
2222.150 51.839 74.588
2349.460 50.630 164.095
2484.060 49.080 -130.481
2626.360 45.757 -82.182
2776.820 40.473 -35.968
2935.900 38.092 26.070
3104.100 41.619 51.001
3281.930 45.253 28.460
3469.940 47.116 -29.878
3668.730 47.027 -111.906
3878.910 46.328 145.346
4101.130 45.437 16.292
4336.070 44.061 -140.217
4584.480 41.824 32.018
4847.120 37.857 177.921
5124.810 31.879 -52.916
5418.400 29.861 77.757
5728.810 33.409 148.838
6057.010 36.280 157.762
6404.000 37.055 109.958
6770.880 36.074 16.473
7158.770 32.621 -106.312
7568.890 23.882 85.745
8002.500 23.427 -66.298
8460.950 26.920 5.531
8945.670 27.409 51.731
9458.160 25.557 9.821
10000.000 15.030 -113.018
