# Freq(Hz) SPL(dB) Phase (degrees)
10.000 52.679 108.653
10.570 53.477 104.719
11.180 54.265 100.527
11.820 55.027 96.146
12.500 55.769 91.511
13.210 56.477 86.692
13.970 57.165 81.553
14.770 57.817 76.163
15.620 58.435 70.453
16.510 59.005 64.488
17.460 59.532 58.129
18.460 59.999 51.436
19.510 60.394 44.399
20.630 60.711 36.869
21.810 60.925 28.896
23.060 61.010 20.387
24.380 60.926 11.317
25.780 60.615 1.591
27.260 59.983 -8.814
28.820 58.877 -19.898
30.470 56.991 -31.682
32.220 53.574 -44.024
34.060 45.563 -55.427
36.010 43.680 103.074
38.080 54.588 91.572
40.260 59.466 77.518
42.560 62.575 63.257
45.000 64.787 49.094
47.580 66.434 35.238
50.310 67.698 21.742
53.190 68.687 8.639
56.230 69.476 -4.125
59.460 70.121 -16.698
62.860 70.652 -29.032
66.460 71.096 -41.277
70.270 71.473 -53.496
74.300 71.796 -65.748
78.550 72.076 -78.059
83.050 72.321 -90.536
87.810 72.539 -103.221
92.840 72.733 -116.154
98.160 72.909 -129.397
103.780 73.071 -142.982
109.730 73.222 -156.991
116.020 73.366 -171.452
122.660 73.505 173.602
129.690 73.643 158.075
137.120 73.782 141.936
144.970 73.925 125.130
153.280 74.075 107.559
162.060 74.234 89.186
171.340 74.403 69.930
181.160 74.586 49.686
191.540 74.782 28.389
202.510 74.992 5.952
214.110 75.215 -17.732
226.380 75.449 -42.771
239.350 75.693 -69.249
253.060 75.942 -97.262
267.560 76.192 -126.925
282.890 76.439 -158.318
299.090 76.678 168.485
316.230 76.906 133.360
334.340 77.119 96.272
353.500 77.319 57.087
373.750 77.505 15.752
395.160 77.680 -27.856
417.800 77.849 -73.874
441.730 78.015 -122.434
467.040 78.178 -173.735
493.800 78.340 132.064
522.090 78.499 74.788
552.000 78.658 14.239
583.620 78.818 -49.807
617.050 78.975 -117.620
652.400 79.122 170.493
689.780 79.238 94.230
729.290 79.293 13.368
771.080 79.246 -72.303
815.250 79.061 -162.704
861.950 78.729 102.326
911.330 78.291 2.970
963.540 77.838 -100.918
1018.740 77.439 150.034
1077.110 77.091 35.046
1138.810 76.763 -86.177
1204.050 76.489 146.123
1273.030 76.336 11.214
1345.960 76.294 -132.008
1423.070 76.264 75.622
1504.590 76.141 -86.157
1590.790 75.885 102.909
1681.920 75.608 -77.135
1778.280 75.436 92.367
1880.150 75.255 -110.319
1987.870 74.862 34.395
2101.750 74.207 167.317
2222.150 73.477 -71.956
2349.460 72.661 34.678
2484.060 71.601 126.714
2626.360 70.296 -156.111
2776.820 68.737 -94.602
2935.900 66.887 -49.681
3104.100 64.658 -22.446
3281.930 61.891 -14.320
3469.940 57.917 -26.975
3668.730 51.234 -58.985
3878.910 23.485 -7.404
4101.130 49.815 -19.776
4336.070 54.800 -121.885
4584.480 57.204 108.073
4847.120 58.400 -50.199
5124.810 58.675 120.842
5418.400 58.109 -98.434
5728.810 56.857 9.980
6057.010 54.764 84.085
6404.000 51.611 122.712
6770.880 46.036 122.295
7158.770 28.287 138.297
7568.890 43.137 149.157
8002.500 47.916 18.041
8460.950 49.165 -164.230
8945.670 48.432 -39.279
9458.160 45.566 33.430
10000.000 38.302 45.384
