# Freq(Hz) SPL(dB) Phase (degrees)
10.000 50.729 103.902
10.570 51.526 99.697
11.180 52.315 95.214
11.820 53.076 90.529
12.500 53.819 85.571
13.210 54.527 80.413
13.970 55.214 74.913
14.770 55.867 69.141
15.620 56.485 63.027
16.510 57.055 56.638
17.460 57.581 49.826
18.460 58.048 42.657
19.510 58.444 35.119
20.630 58.761 27.055
21.810 58.974 18.518
23.060 59.059 9.413
24.380 58.976 -0.288
25.780 58.664 -10.684
27.260 58.032 -21.797
28.820 56.926 -33.628
30.470 55.040 -46.202
32.220 51.623 -59.385
34.060 43.612 -71.672
36.010 41.728 85.891
38.080 52.636 73.392
40.260 57.513 58.286
42.560 60.621 42.914
45.000 62.832 27.569
47.580 64.478 12.462
50.310 65.740 -2.362
53.190 66.727 -16.869
56.230 67.514 -31.119
59.460 68.156 -45.275
62.860 68.682 -59.281
66.460 69.122 -73.302
70.270 69.492 -87.406
74.300 69.808 -101.660
78.550 70.077 -116.090
83.050 70.310 -130.820
87.810 70.512 -145.898
92.840 70.688 -161.369
98.160 70.841 -177.306
103.780 70.975 166.252
109.730 71.091 149.209
116.020 71.193 131.531
122.660 71.281 113.184
129.690 71.357 94.053
137.120 71.423 74.106
144.970 71.478 53.286
153.280 71.524 31.483
162.060 71.561 8.665
171.340 71.589 -15.248
181.160 71.609 -40.364
191.540 71.619 -66.738
202.510 71.618 -94.450
214.110 71.607 -123.606
226.380 71.583 -154.308
239.350 71.545 173.367
253.060 71.489 139.320
267.560 71.413 103.429
282.890 71.315 65.602
299.090 71.189 25.749
316.230 71.033 -16.286
334.340 70.841 -60.558
353.500 70.610 -107.240
373.750 70.333 -156.397
395.160 70.006 151.839
417.800 69.622 97.347
441.730 69.174 40.047
467.040 68.655 -20.192
493.800 68.056 -83.417
522.090 67.371 -149.649
552.000 66.597 141.154
583.620 65.750 69.147
617.050 64.880 -5.471
652.400 64.096 -82.648
689.780 63.553 -162.822
729.290 63.380 112.817
771.080 63.579 22.539
815.250 64.017 -74.865
861.950 64.537 -179.874
911.330 65.043 67.540
963.540 65.508 -52.610
1018.740 65.952 179.438
1077.110 66.362 43.008
1138.810 66.666 -102.499
1204.050 66.755 102.590
1273.030 66.576 -61.496
1345.960 66.125 125.218
1423.070 65.441 -57.423
1504.590 64.511 110.175
1590.790 63.320 -92.482
1681.920 61.809 54.427
1778.280 59.941 -168.471
1880.150 57.964 -39.635
1987.870 56.460 78.385
2101.750 55.457 -179.057
2222.150 54.387 -95.471
2349.460 52.666 -30.660
2484.060 49.831 17.169
2626.360 45.450 52.110
2776.820 39.335 86.630
2935.900 36.383 133.023
3104.100 37.927 143.188
3281.930 39.857 119.807
3469.940 42.421 62.936
3668.730 43.779 -32.091
3878.910 43.875 -154.647
4101.130 42.964 57.252
4336.070 41.772 -119.192
4584.480 39.644 32.234
4847.120 35.135 154.523
5124.810 28.779 -95.160
5418.400 26.320 13.497
5728.810 30.667 64.521
6057.010 32.557 44.505
6404.000 32.713 -18.424
6770.880 32.882 -137.234
7158.770 27.694 69.062
7568.890 22.297 -130.092
8002.500 21.995 30.447
8460.950 24.863 92.667
8945.670 25.522 41.765
9458.160 14.765 -25.165
10000.000 17.510 -140.528
