# Freq(Hz) SPL(dB) Phase (degrees)
10.000 52.583 108.443
10.570 53.380 104.497
11.180 54.169 100.292
11.820 54.930 95.898
12.500 55.673 91.249
13.210 56.380 86.415
13.970 57.068 81.260
14.770 57.720 75.853
15.620 58.338 70.125
16.510 58.908 64.141
17.460 59.435 57.762
18.460 59.901 51.049
19.510 60.297 43.990
20.630 60.614 36.436
21.810 60.827 28.438
23.060 60.912 19.903
24.380 60.828 10.805
25.780 60.516 1.049
27.260 59.884 -9.387
28.820 58.778 -20.504
30.470 56.892 -32.322
32.220 53.474 -44.701
34.060 45.463 -56.143
36.010 43.579 102.317
38.080 54.486 90.772
40.260 59.363 76.672
42.560 62.472 62.362
45.000 64.683 48.148
47.580 66.329 34.238
50.310 67.592 20.684
53.190 68.580 7.521
56.230 69.368 -5.308
59.460 70.011 -17.948
62.860 70.540 -30.354
66.460 70.982 -42.674
70.270 71.357 -54.972
74.300 71.678 -67.308
78.550 71.954 -79.707
83.050 72.196 -92.277
87.810 72.409 -105.059
92.840 72.599 -118.094
98.160 72.770 -131.442
103.780 72.927 -145.138
109.730 73.071 -159.261
116.020 73.208 -173.841
122.660 73.339 171.093
129.690 73.468 155.442
137.120 73.597 139.178
144.970 73.730 122.246
153.280 73.868 104.549
162.060 74.015 86.052
171.340 74.172 66.675
181.160 74.341 46.314
191.540 74.524 24.904
202.510 74.722 2.360
214.110 74.933 -21.429
226.380 75.158 -46.571
239.350 75.394 -73.151
253.060 75.638 -101.272
267.560 75.886 -131.052
282.890 76.134 -162.578
299.090 76.377 164.068
316.230 76.613 128.754
334.340 76.836 91.434
353.500 77.047 51.964
373.750 77.243 10.282
395.160 77.426 -33.743
417.800 77.596 -80.251
441.730 77.750 -129.364
467.040 77.886 178.741
493.800 78.000 123.949
522.090 78.092 66.155
552.000 78.168 5.234
583.620 78.245 -58.983
617.050 78.338 -126.784
652.400 78.455 161.424
689.780 78.578 85.202
729.290 78.667 4.204
771.080 78.666 -81.851
815.250 78.518 -172.889
861.950 78.197 91.305
911.330 77.731 -8.956
963.540 77.214 -113.626
1018.740 76.745 136.788
1077.110 76.355 21.401
1138.810 76.017 -100.346
1204.050 75.728 131.189
1273.030 75.528 -4.540
1345.960 75.427 -148.389
1423.070 75.375 58.753
1504.590 75.286 -103.762
1590.790 75.063 83.907
1681.920 74.703 -97.964
1778.280 74.328 70.395
1880.150 74.056 -132.490
1987.870 73.719 11.342
2101.750 73.044 142.120
2222.150 72.127 -99.057
2349.460 71.136 6.140
2484.060 69.902 96.407
2626.360 68.353 171.548
2776.820 66.464 -129.242
2935.900 64.122 -87.181
3104.100 61.040 -63.754
3281.930 56.548 -59.840
3469.940 48.499 -83.226
3668.730 42.700 95.493
3878.910 52.688 18.352
4101.130 56.172 -67.468
4336.070 57.765 -174.058
4584.480 58.698 53.026
4847.120 58.871 -109.097
5124.810 58.296 58.079
5418.400 56.726 -166.299
5728.810 54.038 -62.266
6057.010 49.791 8.645
6404.000 41.241 45.354
6770.880 37.319 -172.049
7158.770 46.488 149.699
7568.890 49.092 57.496
8002.500 49.534 -80.874
8460.950 47.865 89.462
8945.670 43.593 -147.612
9458.160 33.700 -59.433
10000.000 35.326 83.046
