# Freq(Hz) SPL(dB) Phase (degrees)
10.000 52.679 108.653
10.570 53.477 104.719
11.180 54.265 100.527
11.820 55.027 96.146
12.500 55.769 91.511
13.210 56.477 86.692
13.970 57.165 81.553
14.770 57.817 76.163
15.620 58.435 70.453
16.510 59.005 64.488
17.460 59.532 58.129
18.460 59.999 51.436
19.510 60.394 44.399
20.630 60.711 36.869
21.810 60.925 28.896
23.060 61.010 20.387
24.380 60.926 11.317
25.780 60.615 1.591
27.260 59.983 -8.814
28.820 58.877 -19.898
30.470 56.991 -31.682
32.220 53.574 -44.024
34.060 45.563 -55.427
36.010 43.680 103.074
38.080 54.588 91.572
40.260 59.466 77.518
42.560 62.575 63.257
45.000 64.787 49.094
47.580 66.434 35.238
50.310 67.698 21.742
53.190 68.687 8.639
56.230 69.476 -4.126
59.460 70.121 -16.698
62.860 70.652 -29.032
66.460 71.096 -41.277
70.270 71.473 -53.496
74.300 71.796 -65.748
78.550 72.076 -78.059
83.050 72.321 -90.536
87.810 72.539 -103.222
92.840 72.733 -116.154
98.160 72.909 -129.397
103.780 73.071 -142.982
109.730 73.222 -156.991
116.020 73.366 -171.452
122.660 73.505 173.602
129.690 73.643 158.075
137.120 73.782 141.936
144.970 73.925 125.130
153.280 74.075 107.559
162.060 74.234 89.186
171.340 74.403 69.930
181.160 74.586 49.685
191.540 74.782 28.389
202.510 74.992 5.952
214.110 75.215 -17.733
226.380 75.449 -42.772
239.350 75.693 -69.249
253.060 75.942 -97.263
267.560 76.192 -126.925
282.890 76.439 -158.318
299.090 76.678 168.485
316.230 76.906 133.359
334.340 77.119 96.271
353.500 77.319 57.086
373.750 77.505 15.752
395.160 77.680 -27.856
417.800 77.849 -73.875
441.730 78.014 -122.434
467.040 78.178 -173.735
493.800 78.340 132.064
522.090 78.499 74.789
552.000 78.658 14.239
583.620 78.818 -49.806
617.050 78.975 -117.619
652.400 79.122 170.493
689.780 79.238 94.230
729.290 79.293 13.368
771.080 79.246 -72.304
815.250 79.061 -162.705
861.950 78.729 102.325
911.330 78.291 2.969
963.540 77.838 -100.918
1018.740 77.439 150.035
1077.110 77.091 35.048
1138.810 76.763 -86.175
1204.050 76.489 146.126
1273.030 76.336 11.216
1345.960 76.294 -132.009
1423.070 76.265 75.621
1504.590 76.141 -86.162
1590.790 75.885 102.906
1681.920 75.608 -77.134
1778.280 75.434 92.350
1880.150 75.261 -110.346
1987.870 74.861 34.391
2101.750 74.206 167.314
2222.150 73.477 -71.954
2349.460 72.660 34.677
2484.060 71.601 126.715
2626.360 70.296 -156.110
2776.820 68.737 -94.601
2935.900 66.887 -49.679
3104.100 64.658 -22.443
3281.930 61.886 -14.263
3469.940 57.918 -26.967
3668.730 51.231 -58.970
3878.910 23.491 -6.901
4101.130 49.789 -19.824
4336.070 54.798 -121.874
4584.480 57.203 108.082
4847.120 58.404 -50.205
5124.810 58.672 120.819
5418.400 58.105 -98.457
5728.810 56.861 10.014
6057.010 54.765 84.097
6404.000 51.608 122.709
6770.880 46.008 122.278
7158.770 28.194 137.951
7568.890 43.376 148.499
8002.500 47.920 18.004
8460.950 49.151 -164.258
8945.670 48.465 -39.008
9458.160 45.616 33.136
10000.000 38.449 45.886
