# Freq(Hz) SPL(dB) Phase (degrees)
10.000 52.480 108.218
10.570 53.278 104.259
11.180 54.066 100.040
11.820 54.828 95.631
12.500 55.570 90.967
13.210 56.278 86.117
13.970 56.965 80.945
14.770 57.617 75.519
15.620 58.235 69.772
16.510 58.805 63.768
17.460 59.332 57.368
18.460 59.798 50.632
19.510 60.193 43.549
20.630 60.510 35.971
21.810 60.723 27.945
23.060 60.808 19.382
24.380 60.724 10.255
25.780 60.412 0.467
27.260 59.779 -10.003
28.820 58.673 -21.155
30.470 56.786 -33.010
32.220 53.369 -45.429
34.060 45.357 -56.912
36.010 43.472 101.503
38.080 54.379 89.911
40.260 59.255 75.761
42.560 62.363 61.400
45.000 64.574 47.130
47.580 66.218 33.162
50.310 67.480 19.546
53.190 68.467 6.317
56.230 69.254 -6.581
59.460 69.896 -19.294
62.860 70.422 -31.777
66.460 70.862 -44.179
70.270 71.235 -56.564
74.300 71.553 -68.990
78.550 71.827 -81.485
83.050 72.065 -94.155
87.810 72.274 -107.043
92.840 72.460 -120.189
98.160 72.626 -133.654
103.780 72.776 -147.471
109.730 72.914 -161.720
116.020 73.043 -176.430
122.660 73.166 168.369
129.690 73.285 152.580
137.120 73.404 136.176
144.970 73.525 119.103
153.280 73.651 101.265
162.060 73.784 82.628
171.340 73.927 63.114
181.160 74.081 42.620
191.540 74.250 21.083
202.510 74.432 -1.583
214.110 74.630 -25.488
226.380 74.843 -50.741
239.350 75.068 -77.430
253.060 75.305 -105.661
267.560 75.548 -135.557
282.890 75.796 -167.212
299.090 76.042 159.284
316.230 76.285 123.789
334.340 76.519 86.249
353.500 76.743 46.506
373.750 76.954 4.487
395.160 77.150 -39.950
417.800 77.329 -86.953
441.730 77.483 -136.644
467.040 77.605 170.809
493.800 77.684 115.324
522.090 77.716 56.856
552.000 77.708 -4.630
583.620 77.687 -69.210
617.050 77.690 -137.131
652.400 77.745 151.145
689.780 77.848 75.036
729.290 77.957 -5.965
771.080 78.001 -92.251
815.250 77.905 176.199
861.950 77.620 79.614
911.330 77.157 -21.610
963.540 76.602 -127.256
1018.740 76.067 122.359
1077.110 75.620 6.378
1138.810 75.255 -115.962
1204.050 74.950 114.767
1273.030 74.707 -21.933
1345.960 74.528 -166.636
1423.070 74.409 39.951
1504.590 74.322 -123.044
1590.790 74.167 63.582
1681.920 73.822 -120.236
1778.280 73.279 46.080
1880.150 72.771 -157.596
1987.870 72.384 -14.040
2101.750 71.752 115.262
2222.150 70.727 -128.174
2349.460 69.527 -24.819
2484.060 68.080 63.648
2626.360 66.248 136.681
2776.820 63.953 -166.458
2935.900 60.997 -127.426
3104.100 56.797 -109.054
3281.930 49.057 -120.573
3469.940 43.626 106.186
3668.730 52.922 36.731
3878.910 56.565 -31.802
4101.130 58.171 -120.032
4336.070 58.691 129.043
4584.480 58.710 -6.880
4847.120 58.268 -172.690
5124.810 56.933 -9.911
5418.400 54.323 120.542
5728.810 49.715 -141.531
6057.010 39.603 -82.963
6404.000 39.651 136.204
6770.880 47.775 116.427
7158.770 50.170 57.711
7568.890 49.994 -43.105
8002.500 48.038 170.431
8460.950 43.013 -25.436
8945.670 27.644 117.973
9458.160 37.791 -40.782
10000.000 42.688 -42.900
