# Freq(Hz) SPL(dB) Phase (degrees)
10.000 51.796 106.640
10.570 52.594 102.591
11.180 53.382 98.275
11.820 54.143 93.766
12.500 54.885 88.994
13.210 55.593 84.031
13.970 56.280 78.739
14.770 56.932 73.188
15.620 57.549 67.306
16.510 58.119 61.162
17.460 58.645 54.611
18.460 59.110 47.716
19.510 59.506 40.467
20.630 59.821 32.712
21.810 60.034 24.499
23.060 60.118 15.738
24.380 60.033 6.401
25.780 59.720 -3.609
27.260 59.086 -14.314
28.820 57.978 -25.714
30.470 56.090 -37.832
32.220 52.671 -50.529
34.060 44.657 -62.306
36.010 42.770 95.799
38.080 53.674 83.876
40.260 58.548 69.377
42.560 61.652 54.647
45.000 63.859 39.985
47.580 65.500 25.603
50.310 66.757 11.547
53.190 67.738 -2.146
56.230 68.519 -15.535
59.460 69.154 -28.772
62.860 69.672 -41.806
66.460 70.103 -54.794
70.270 70.465 -67.799
74.300 70.770 -80.883
78.550 71.029 -94.072
83.050 71.251 -107.479
87.810 71.441 -121.147
92.840 71.604 -135.116
98.160 71.743 -149.450
103.780 71.863 -164.183
109.730 71.966 -179.398
116.020 72.054 164.878
122.660 72.129 148.618
129.690 72.193 131.723
137.120 72.248 114.170
144.970 72.296 95.912
153.280 72.339 76.858
162.060 72.379 56.986
171.340 72.417 36.229
181.160 72.456 14.496
191.540 72.498 -8.256
202.510 72.546 -32.099
214.110 72.602 -57.124
226.380 72.670 -83.426
239.350 72.753 -111.082
253.060 72.853 -140.194
267.560 72.975 -170.889
282.890 73.121 156.720
299.090 73.294 122.514
316.230 73.497 86.301
334.340 73.732 47.967
353.500 73.999 7.275
373.750 74.299 -35.941
395.160 74.625 -81.924
417.800 74.968 -130.936
441.730 75.310 176.788
467.040 75.623 120.967
493.800 75.869 61.433
522.090 76.003 -1.895
552.000 75.982 -68.970
583.620 75.782 -139.597
617.050 75.406 146.479
652.400 74.895 69.452
689.780 74.318 -10.658
729.290 73.758 -94.088
771.080 73.280 178.519
815.250 72.906 86.456
861.950 72.606 -11.025
911.330 72.326 -114.391
963.540 72.030 136.142
1018.740 71.700 20.340
1077.110 71.324 -102.090
1138.810 70.891 128.688
1204.050 70.420 -7.495
1273.030 69.974 -151.023
1345.960 69.603 57.231
1423.070 69.284 -103.806
1504.590 68.942 84.924
1590.790 68.434 -97.356
1681.920 67.565 69.588
1778.280 66.308 -132.619
1880.150 65.119 16.735
1987.870 64.317 153.302
2101.750 63.382 -86.285
2222.150 61.836 19.021
2349.460 59.624 110.602
2484.060 56.723 -171.049
2626.360 52.919 -107.928
2776.820 46.723 -59.830
2935.900 28.395 24.490
3104.100 44.952 140.277
3281.930 50.392 128.764
3469.940 52.740 95.147
3668.730 53.998 39.061
3878.910 54.313 -41.928
4101.130 53.737 -147.008
4336.070 52.599 82.556
4584.480 50.641 -76.714
4847.120 47.255 94.717
5124.810 41.099 -123.378
5418.400 22.695 75.766
5728.810 39.464 -141.190
6057.010 44.045 -103.579
6404.000 45.527 -107.941
6770.880 44.583 -156.894
7158.770 40.963 113.259
7568.890 33.043 -18.345
8002.500 28.558 -49.088
8460.950 37.491 84.831
8945.670 38.978 152.701
9458.160 36.608 163.114
10000.000 27.732 118.312
