# Freq(Hz) SPL(dB) Phase (degrees)
10.000 51.240 105.258
10.570 52.038 101.130
11.180 52.826 96.730
11.820 53.587 92.132
12.500 54.329 87.267
13.210 55.037 82.206
13.970 55.724 76.808
14.770 56.376 71.146
15.620 56.994 65.147
16.510 57.563 58.879
17.460 58.089 52.196
18.460 58.555 45.163
19.510 58.950 37.768
20.630 59.266 29.857
21.810 59.479 21.481
23.060 59.563 12.546
24.380 59.478 3.025
25.780 59.165 -7.180
27.260 58.532 -18.091
28.820 57.424 -29.709
30.470 55.537 -42.057
32.220 52.117 -55.000
34.060 44.104 -67.035
36.010 42.217 90.796
38.080 53.122 78.582
40.260 57.996 63.776
42.560 61.101 48.721
45.000 63.308 33.714
47.580 64.949 18.965
50.310 66.206 4.520
53.190 67.188 -9.585
56.230 67.969 -23.411
59.460 68.604 -37.113
62.860 69.123 -50.640
66.460 69.554 -64.151
70.270 69.915 -77.714
74.300 70.220 -91.392
78.550 70.479 -105.211
83.050 70.699 -119.290
87.810 70.887 -133.673
92.840 71.047 -148.405
98.160 71.183 -163.553
103.780 71.297 -179.154
109.730 71.393 164.704
116.020 71.471 147.989
122.660 71.534 130.673
129.690 71.583 112.649
137.120 71.619 93.891
144.970 71.641 74.349
153.280 71.652 53.924
162.060 71.651 32.595
171.340 71.639 10.290
181.160 71.615 -13.081
191.540 71.580 -37.559
202.510 71.533 -63.207
214.110 71.474 -90.108
226.380 71.403 -118.339
239.350 71.321 -147.952
253.060 71.227 -179.012
267.560 71.124 148.395
282.890 71.014 114.215
299.090 70.903 78.398
316.230 70.800 40.825
334.340 70.718 1.460
353.500 70.673 -39.869
373.750 70.689 -83.292
395.160 70.788 -129.074
417.800 70.990 -177.572
441.730 71.302 130.795
467.040 71.710 75.505
493.800 72.174 16.125
522.090 72.638 -47.663
552.000 73.039 -116.009
583.620 73.328 171.112
617.050 73.482 93.789
652.400 73.500 12.061
689.780 73.398 -74.154
729.290 73.183 -165.036
771.080 72.849 99.075
815.250 72.369 -1.966
861.950 71.717 -108.256
911.330 70.881 140.276
963.540 69.877 23.807
1018.740 68.769 -97.565
1077.110 67.658 136.105
1138.810 66.695 4.441
1204.050 66.042 -133.791
1273.030 65.756 79.298
1345.960 65.674 -78.281
1423.070 65.534 112.594
1504.590 65.124 -67.907
1590.790 64.308 100.712
1681.920 63.033 -100.449
1778.280 61.452 50.038
1880.150 60.082 -167.791
1987.870 59.281 -38.887
2101.750 58.521 72.145
2222.150 57.035 165.567
2349.460 54.444 -115.739
2484.060 50.632 -48.072
2626.360 45.840 12.303
2776.820 40.100 73.595
2935.900 38.839 150.300
3104.100 42.957 175.133
3281.930 45.567 160.957
3469.940 47.870 119.048
3668.730 49.206 43.708
3878.910 48.778 -57.409
4101.130 47.463 -179.151
4336.070 46.159 33.558
4584.480 44.128 -146.362
4847.120 40.037 6.389
5124.810 33.909 142.208
5418.400 30.169 -62.188
5728.810 35.407 24.103
6057.010 38.617 38.315
6404.000 38.472 5.358
6770.880 36.951 -68.163
7158.770 33.297 168.182
7568.890 26.185 15.998
8002.500 24.892 -108.796
8460.950 29.990 8.469
8945.670 30.854 45.441
9458.160 28.739 15.533
10000.000 18.875 -67.615
