# Freq(Hz) SPL(dB) Phase (degrees)
10.000 51.140 105.000
10.570 51.938 100.857
11.180 52.726 96.441
11.820 53.488 91.827
12.500 54.230 86.943
13.210 54.937 81.864
13.970 55.625 76.447
14.770 56.276 70.764
15.620 56.894 64.743
16.510 57.464 58.452
17.460 57.990 51.745
18.460 58.456 44.686
19.510 58.851 37.264
20.630 59.167 29.323
21.810 59.380 20.916
23.060 59.464 11.948
24.380 59.379 2.394
25.780 59.067 -7.848
27.260 58.433 -18.798
28.820 57.326 -30.456
30.470 55.438 -42.848
32.220 52.019 -55.836
34.060 44.006 -67.919
36.010 42.120 89.861
38.080 53.025 77.592
40.260 57.899 62.729
42.560 61.005 47.613
45.000 63.212 32.541
47.580 64.854 17.724
50.310 66.112 3.206
53.190 67.094 -10.976
56.230 67.876 -24.883
59.460 68.512 -38.672
62.860 69.031 -52.291
66.460 69.463 -65.900
70.270 69.826 -79.568
74.300 70.132 -93.357
78.550 70.391 -107.294
83.050 70.613 -121.498
87.810 70.802 -136.016
92.840 70.964 -150.891
98.160 71.101 -166.192
103.780 71.218 178.044
109.730 71.315 161.726
116.020 71.396 144.824
122.660 71.461 127.306
129.690 71.511 109.066
137.120 71.549 90.075
144.970 71.573 70.282
153.280 71.585 49.586
162.060 71.585 27.964
171.340 71.573 5.343
181.160 71.549 -18.371
191.540 71.512 -43.221
202.510 71.461 -69.272
214.110 71.396 -96.611
226.380 71.316 -125.318
239.350 71.220 -155.446
253.060 71.107 172.937
267.560 70.977 139.746
282.890 70.830 104.930
299.090 70.670 68.446
316.230 70.501 30.194
334.340 70.334 -9.835
353.500 70.183 -51.768
373.750 70.072 -95.672
395.160 70.030 -141.743
417.800 70.087 169.726
441.730 70.268 118.334
467.040 70.577 63.514
493.800 70.989 4.731
522.090 71.448 -58.457
552.000 71.889 -126.300
583.620 72.254 161.165
617.050 72.511 83.996
652.400 72.655 2.213
689.780 72.695 -84.282
729.290 72.638 -175.689
771.080 72.472 87.631
815.250 72.168 -14.497
861.950 71.693 -122.212
911.330 71.028 124.490
963.540 70.175 5.683
1018.740 69.163 -118.620
1077.110 68.028 111.562
1138.810 66.841 -23.676
1204.050 65.749 -164.466
1273.030 64.985 48.155
1345.960 64.654 -108.228
1423.070 64.598 83.893
1504.590 64.522 -96.635
1590.790 64.159 69.987
1681.920 63.274 -135.784
1778.280 61.694 7.550
1880.150 59.501 142.495
1987.870 57.259 -88.996
2101.750 55.861 29.260
2222.150 55.042 128.449
2349.460 53.551 -153.499
2484.060 50.679 -91.706
2626.360 45.996 -39.886
2776.820 39.676 16.575
2935.900 38.410 92.507
3104.100 43.072 113.333
3281.930 45.755 88.102
3469.940 46.463 39.508
3668.730 47.222 -30.041
3878.910 47.687 -131.497
4101.130 46.730 98.738
4336.070 44.898 -54.267
4584.480 42.732 126.533
4847.120 39.791 -84.335
5124.810 33.875 42.553
5418.400 29.033 -171.907
5728.810 34.771 -93.953
6057.010 36.587 -85.470
6404.000 37.505 -117.740
6770.880 35.359 150.016
7158.770 32.766 30.258
7568.890 23.610 -124.399
8002.500 25.177 105.212
8460.950 27.810 -157.455
8945.670 29.900 -134.103
9458.160 25.186 160.458
10000.000 17.643 99.029
