# Freq(Hz) SPL(dB) Phase (degrees)
10.000 51.240 105.258
10.570 52.038 101.130
11.180 52.826 96.730
11.820 53.587 92.132
12.500 54.329 87.267
13.210 55.037 82.206
13.970 55.724 76.808
14.770 56.376 71.146
15.620 56.994 65.147
16.510 57.563 58.879
17.460 58.089 52.196
18.460 58.555 45.163
19.510 58.950 37.768
20.630 59.266 29.857
21.810 59.479 21.481
23.060 59.563 12.546
24.380 59.478 3.025
25.780 59.165 -7.180
27.260 58.532 -18.091
28.820 57.424 -29.709
30.470 55.537 -42.057
32.220 52.117 -55.000
34.060 44.104 -67.035
36.010 42.217 90.796
38.080 53.122 78.582
40.260 57.996 63.776
42.560 61.101 48.721
45.000 63.308 33.714
47.580 64.949 18.965
50.310 66.206 4.520
53.190 67.188 -9.585
56.230 67.969 -23.411
59.460 68.604 -37.113
62.860 69.123 -50.640
66.460 69.554 -64.151
70.270 69.915 -77.714
74.300 70.220 -91.392
78.550 70.479 -105.211
83.050 70.699 -119.290
87.810 70.887 -133.673
92.840 71.047 -148.405
98.160 71.183 -163.553
103.780 71.297 -179.154
109.730 71.393 164.704
116.020 71.471 147.989
122.660 71.534 130.673
129.690 71.583 112.649
137.120 71.619 93.891
144.970 71.641 74.349
153.280 71.652 53.924
162.060 71.651 32.595
171.340 71.639 10.290
181.160 71.615 -13.081
191.540 71.580 -37.559
202.510 71.533 -63.207
214.110 71.474 -90.108
226.380 71.403 -118.339
239.350 71.321 -147.952
253.060 71.227 -179.012
267.560 71.124 148.395
282.890 71.014 114.215
299.090 70.903 78.397
316.230 70.800 40.825
334.340 70.718 1.459
353.500 70.673 -39.870
373.750 70.689 -83.293
395.160 70.788 -129.075
417.800 70.990 -177.574
441.730 71.302 130.793
467.040 71.710 75.504
493.800 72.174 16.124
522.090 72.638 -47.664
552.000 73.039 -116.010
583.620 73.328 171.112
617.050 73.482 93.789
652.400 73.500 12.061
689.780 73.398 -74.153
729.290 73.183 -165.035
771.080 72.849 99.076
815.250 72.369 -1.965
861.950 71.717 -108.255
911.330 70.881 140.276
963.540 69.877 23.806
1018.740 68.769 -97.567
1077.110 67.658 136.102
1138.810 66.695 4.439
1204.050 66.042 -133.791
1273.030 65.756 79.301
1345.960 65.674 -78.278
1423.070 65.536 112.595
1504.590 65.124 -67.930
1590.790 64.310 100.716
1681.920 63.035 -100.447
1778.280 61.457 50.071
1880.150 60.085 -167.860
1987.870 59.281 -38.897
2101.750 58.522 72.142
2222.150 57.036 165.567
2349.460 54.387 -115.775
2484.060 50.635 -48.077
2626.360 45.844 12.276
2776.820 40.096 73.543
2935.900 38.834 150.289
3104.100 42.963 175.166
3281.930 45.573 161.032
3469.940 47.870 119.034
3668.730 49.211 43.687
3878.910 48.789 -57.416
4101.130 47.467 -179.142
4336.070 46.159 33.492
4584.480 44.132 -146.404
4847.120 40.048 6.330
5124.810 33.909 142.239
5418.400 30.244 -62.009
5728.810 35.159 20.982
6057.010 38.603 38.395
6404.000 38.482 5.369
6770.880 37.013 -68.546
7158.770 33.596 170.091
7568.890 26.067 17.174
8002.500 25.084 -110.302
8460.950 29.814 9.246
8945.670 30.809 43.525
9458.160 29.165 19.637
10000.000 19.593 -42.308
