# Freq(Hz) SPL(dB) Phase (degrees)
10.000 51.680 106.358
10.570 52.477 102.293
11.180 53.266 97.961
11.820 54.027 93.433
12.500 54.769 88.642
13.210 55.476 83.660
13.970 56.164 78.346
14.770 56.815 72.772
15.620 57.433 66.866
16.510 58.003 60.697
17.460 58.528 54.119
18.460 58.994 47.197
19.510 59.389 39.918
20.630 59.705 32.130
21.810 59.918 23.885
23.060 60.001 15.088
24.380 59.916 5.714
25.780 59.603 -4.336
27.260 58.969 -15.083
28.820 57.861 -26.527
30.470 55.973 -38.692
32.220 52.554 -51.439
34.060 44.540 -63.269
36.010 42.653 94.780
38.080 53.557 82.798
40.260 58.431 68.237
42.560 61.535 53.441
45.000 63.742 38.709
47.580 65.382 24.251
50.310 66.639 10.117
53.190 67.620 -3.660
56.230 68.400 -17.138
59.460 69.034 -30.469
62.860 69.552 -43.604
66.460 69.982 -56.697
70.270 70.343 -69.816
74.300 70.648 -83.020
78.550 70.906 -96.337
83.050 71.126 -109.879
87.810 71.314 -123.692
92.840 71.475 -137.814
98.160 71.612 -152.312
103.780 71.729 -167.219
109.730 71.828 177.381
116.020 71.912 161.460
122.660 71.981 144.992
129.690 72.039 127.875
137.120 72.087 110.088
144.970 72.126 91.583
153.280 72.157 72.268
162.060 72.184 52.124
171.340 72.206 31.082
181.160 72.226 9.056
191.540 72.246 -13.998
202.510 72.268 -38.144
214.110 72.295 -63.471
226.380 72.329 -90.068
239.350 72.375 -118.003
253.060 72.435 -147.372
267.560 72.514 -178.294
282.890 72.617 149.125
299.090 72.748 114.772
316.230 72.912 78.457
334.340 73.115 40.062
353.500 73.360 -0.658
373.750 73.649 -43.884
395.160 73.979 -89.883
417.800 74.342 -138.939
441.730 74.720 168.679
467.040 75.084 112.663
493.800 75.395 52.810
522.090 75.604 -10.992
552.000 75.668 -78.732
583.620 75.553 -150.255
617.050 75.254 134.654
652.400 74.796 56.168
689.780 74.227 -25.665
729.290 73.605 -110.952
771.080 72.985 159.921
815.250 72.404 66.553
861.950 71.883 -31.616
911.330 71.426 -135.112
963.540 71.034 115.588
1018.740 70.700 -0.106
1077.110 70.395 -122.805
1138.810 70.062 107.114
1204.050 69.662 -30.521
1273.030 69.207 -175.802
1345.960 68.743 30.933
1423.070 68.324 -130.991
1504.590 67.985 57.305
1590.790 67.646 -125.760
1681.920 67.045 38.857
1778.280 65.895 -167.808
1880.150 64.308 -23.254
1987.870 62.813 112.103
2101.750 61.593 -125.666
2222.150 60.259 -19.669
2349.460 58.229 69.782
2484.060 55.273 145.065
2626.360 51.099 -152.513
2776.820 44.498 -100.553
2935.900 34.159 9.940
3104.100 44.553 76.311
3281.930 49.591 68.086
3469.940 52.111 30.645
3668.730 52.997 -30.002
3878.910 53.084 -113.274
4101.130 52.420 138.138
4336.070 51.014 4.474
4584.480 49.014 -156.580
4847.120 45.712 10.518
5124.810 38.861 151.410
5418.400 27.541 -4.342
5728.810 39.004 112.948
6057.010 42.874 145.707
6404.000 43.987 136.867
6770.880 42.846 83.125
7158.770 39.171 -12.359
7568.890 30.066 -142.214
8002.500 28.746 165.102
8460.950 36.115 -67.447
8945.670 37.290 -3.212
9458.160 35.000 -0.549
10000.000 25.604 -51.220
