# Freq(Hz) SPL(dB) Phase (degrees)
10.000 52.850 109.019
10.570 53.648 105.106
11.180 54.436 100.936
11.820 55.198 96.579
12.500 55.941 91.969
13.210 56.649 87.176
13.970 57.337 82.064
14.770 57.989 76.703
15.620 58.607 71.025
16.510 59.178 65.092
17.460 59.704 58.768
18.460 60.171 52.112
19.510 60.567 45.114
20.630 60.884 37.625
21.810 61.099 29.694
23.060 61.184 21.231
24.380 61.101 12.210
25.780 60.790 2.535
27.260 60.158 -7.816
28.820 59.053 -18.843
30.470 57.168 -30.566
32.220 53.752 -42.844
34.060 45.742 -54.180
36.010 43.859 104.393
38.080 54.769 92.967
40.260 59.648 78.992
42.560 62.758 64.816
45.000 64.972 50.741
47.580 66.621 36.981
50.310 67.887 23.584
53.190 68.878 10.586
56.230 69.670 -2.068
59.460 70.318 -14.523
62.860 70.852 -26.734
66.460 71.300 -38.849
70.270 71.682 -50.931
74.300 72.010 -63.039
78.550 72.295 -75.199
83.050 72.547 -87.517
87.810 72.771 -100.037
92.840 72.974 -112.796
98.160 73.159 -125.858
103.780 73.331 -139.257
109.730 73.494 -153.072
116.020 73.650 -167.335
122.660 73.804 177.923
129.690 73.957 162.603
137.120 74.113 146.671
144.970 74.275 130.073
153.280 74.444 112.709
162.060 74.624 94.539
171.340 74.814 75.480
181.160 75.017 55.429
191.540 75.233 34.319
202.510 75.462 12.064
214.110 75.701 -11.441
226.380 75.949 -36.299
239.350 76.202 -62.588
253.060 76.457 -90.399
267.560 76.707 -119.834
282.890 76.950 -150.963
299.090 77.179 176.155
316.230 77.394 141.411
334.340 77.593 104.787
353.500 77.778 66.164
373.750 77.955 25.503
395.160 78.133 -17.319
417.800 78.323 -62.450
441.730 78.534 -110.061
467.040 78.774 -160.421
493.800 79.045 146.212
522.090 79.336 89.550
552.000 79.628 29.316
583.620 79.895 -34.701
617.050 80.111 -102.643
652.400 80.256 -174.610
689.780 80.322 109.309
729.290 80.304 29.033
771.080 80.193 -55.605
815.250 79.990 -144.612
861.950 79.708 121.956
911.330 79.390 23.951
963.540 79.083 -79.048
1018.740 78.786 172.386
1077.110 78.462 57.920
1138.810 78.125 -62.313
1204.050 77.885 171.345
1273.030 77.812 37.660
1345.960 77.822 -104.586
1423.070 77.782 104.244
1504.590 77.636 -55.643
1590.790 77.466 135.915
1681.920 77.425 -42.150
1778.280 77.419 128.084
1880.150 77.155 -73.367
1987.870 76.707 74.709
2101.750 76.312 -148.740
2222.150 75.864 -25.681
2349.460 75.232 83.832
2484.060 74.470 179.561
2626.360 73.596 -99.387
2776.820 72.612 -33.769
2935.900 71.546 15.461
3104.100 70.399 46.963
3281.930 69.076 59.670
3469.940 67.642 52.459
3668.730 65.829 22.765
3878.910 63.359 -29.420
4101.130 59.778 -104.212
4336.070 54.513 160.568
4584.480 45.325 58.598
4847.120 43.952 16.689
5124.810 51.264 -138.556
5418.400 54.897 15.414
5728.810 56.821 131.906
6057.010 57.555 -147.844
6404.000 57.526 -103.133
6770.880 57.028 -98.520
7158.770 55.538 -135.918
7568.890 52.870 145.040
8002.500 48.521 21.954
8460.950 39.696 -140.722
8945.670 35.378 125.650
9458.160 43.991 -133.436
10000.000 46.833 -102.681
