# Freq(Hz) SPL(dB) Phase (degrees)
10.000 51.140 105.000
10.570 51.938 100.857
11.180 52.726 96.441
11.820 53.488 91.827
12.500 54.230 86.943
13.210 54.937 81.864
13.970 55.625 76.447
14.770 56.276 70.764
15.620 56.894 64.743
16.510 57.464 58.452
17.460 57.990 51.745
18.460 58.456 44.686
19.510 58.851 37.264
20.630 59.167 29.323
21.810 59.380 20.916
23.060 59.464 11.948
24.380 59.379 2.394
25.780 59.067 -7.848
27.260 58.433 -18.798
28.820 57.326 -30.456
30.470 55.438 -42.848
32.220 52.019 -55.836
34.060 44.006 -67.919
36.010 42.120 89.861
38.080 53.025 77.592
40.260 57.899 62.729
42.560 61.005 47.613
45.000 63.212 32.541
47.580 64.854 17.724
50.310 66.112 3.206
53.190 67.094 -10.976
56.230 67.876 -24.883
59.460 68.512 -38.672
62.860 69.031 -52.291
66.460 69.463 -65.900
70.270 69.826 -79.568
74.300 70.132 -93.357
78.550 70.391 -107.294
83.050 70.613 -121.498
87.810 70.802 -136.016
92.840 70.964 -150.891
98.160 71.101 -166.192
103.780 71.218 178.044
109.730 71.315 161.726
116.020 71.396 144.824
122.660 71.461 127.306
129.690 71.511 109.066
137.120 71.549 90.075
144.970 71.573 70.282
153.280 71.585 49.586
162.060 71.585 27.964
171.340 71.573 5.343
181.160 71.549 -18.371
191.540 71.512 -43.221
202.510 71.461 -69.272
214.110 71.396 -96.611
226.380 71.316 -125.318
239.350 71.220 -155.446
253.060 71.107 172.937
267.560 70.977 139.746
282.890 70.830 104.930
299.090 70.670 68.446
316.230 70.501 30.194
334.340 70.334 -9.834
353.500 70.183 -51.767
373.750 70.072 -95.671
395.160 70.030 -141.742
417.800 70.087 169.727
441.730 70.268 118.335
467.040 70.577 63.516
493.800 70.989 4.732
522.090 71.448 -58.456
552.000 71.889 -126.299
583.620 72.254 161.166
617.050 72.511 83.996
652.400 72.655 2.213
689.780 72.695 -84.283
729.290 72.638 -175.690
771.080 72.472 87.630
815.250 72.168 -14.498
861.950 71.693 -122.213
911.330 71.028 124.489
963.540 70.175 5.682
1018.740 69.162 -118.620
1077.110 68.027 111.563
1138.810 66.841 -23.674
1204.050 65.749 -164.464
1273.030 64.985 48.156
1345.960 64.654 -108.227
1423.070 64.596 83.891
1504.590 64.520 -96.610
1590.790 64.158 69.982
1681.920 63.273 -135.791
1778.280 61.694 7.483
1880.150 59.486 142.571
1987.870 57.256 -88.991
2101.750 55.860 29.270
2222.150 55.041 128.454
2349.460 53.578 -153.331
2484.060 50.676 -91.709
2626.360 45.990 -39.883
2776.820 39.665 16.643
2935.900 38.412 92.575
3104.100 43.076 113.289
3281.930 45.775 88.095
3469.940 46.462 39.506
3668.730 47.213 -30.035
3878.910 47.681 -131.551
4101.130 46.731 98.748
4336.070 44.889 -54.233
4584.480 42.712 126.624
4847.120 39.783 -84.319
5124.810 33.890 42.457
5418.400 29.026 -171.703
5728.810 34.235 -92.976
6057.010 36.681 -85.077
6404.000 37.499 -117.853
6770.880 35.369 150.258
7158.770 32.963 29.778
7568.890 23.862 -126.327
8002.500 25.147 107.564
8460.950 27.584 -158.120
8945.670 29.398 -132.327
9458.160 24.218 160.058
10000.000 17.738 124.347
