# Freq(Hz) SPL(dB) Phase (degrees)
10.000 50.667 103.732
10.570 51.464 99.517
11.180 52.253 95.024
11.820 53.015 90.329
12.500 53.757 85.359
13.210 54.465 80.190
13.970 55.153 74.676
14.770 55.805 68.891
15.620 56.424 62.762
16.510 56.994 56.358
17.460 57.520 49.530
18.460 57.987 42.344
19.510 58.383 34.789
20.630 58.700 26.706
21.810 58.914 18.149
23.060 58.999 9.022
24.380 58.916 -0.701
25.780 58.604 -11.121
27.260 57.973 -22.259
28.820 56.867 -34.117
30.470 54.982 -46.719
32.220 51.565 -59.931
34.060 43.554 -72.250
36.010 41.671 85.280
38.080 52.579 72.746
40.260 57.456 57.602
42.560 60.565 42.190
45.000 62.777 26.804
47.580 64.424 11.652
50.310 65.687 -3.218
53.190 66.675 -17.775
56.230 67.463 -32.077
59.460 68.107 -46.288
62.860 68.634 -60.353
66.460 69.075 -74.436
70.270 69.448 -88.607
74.300 69.765 -102.932
78.550 70.037 -117.436
83.050 70.273 -132.245
87.810 70.478 -147.406
92.840 70.656 -162.966
98.160 70.813 -178.998
103.780 70.950 164.459
109.730 71.071 147.309
116.020 71.178 129.517
122.660 71.272 111.050
129.690 71.354 91.789
137.120 71.427 71.705
144.970 71.490 50.737
153.280 71.545 28.776
162.060 71.592 5.791
171.340 71.631 -18.303
181.160 71.663 -43.613
191.540 71.687 -70.196
202.510 71.702 -98.133
214.110 71.709 -127.532
226.380 71.705 -158.497
239.350 71.689 168.891
253.060 71.659 134.531
267.560 71.613 98.296
282.890 71.548 60.089
299.090 71.461 19.814
316.230 71.349 -22.697
334.340 71.208 -67.508
353.500 71.034 -114.809
373.750 70.824 -164.688
395.160 70.571 142.693
417.800 70.270 87.174
441.730 69.913 28.619
467.040 69.486 -33.170
493.800 68.974 -98.326
522.090 68.355 -166.963
552.000 67.602 120.862
583.620 66.687 45.217
617.050 65.595 -33.694
652.400 64.338 -115.535
689.780 62.970 160.155
729.290 61.628 73.840
771.080 60.543 -14.619
815.250 59.979 -106.449
861.950 60.040 155.926
911.330 60.607 50.335
963.540 61.483 -64.416
1018.740 62.523 171.158
1077.110 63.591 36.442
1138.810 64.519 -108.834
1204.050 65.152 95.501
1273.030 65.444 -69.857
1345.960 65.424 115.248
1423.070 65.164 -69.302
1504.590 64.676 95.908
1590.790 63.955 -109.910
1681.920 62.921 32.562
1778.280 61.437 163.256
1880.150 59.440 -76.724
1987.870 57.152 32.877
2101.750 54.767 132.155
2222.150 52.627 -141.152
2349.460 50.664 -70.722
2484.060 48.289 -18.673
2626.360 44.779 17.905
2776.820 39.913 50.029
2935.900 37.991 88.290
3104.100 40.150 87.125
3281.930 41.266 48.407
3469.940 41.625 -12.092
3668.730 42.627 -102.201
3878.910 43.308 135.644
4101.130 42.709 -19.011
4336.070 41.111 161.628
4584.480 39.176 -45.214
4847.120 36.647 71.681
5124.810 31.247 160.820
5418.400 26.425 -97.653
5728.810 28.415 -50.961
6057.010 30.629 -63.995
6404.000 31.948 -141.708
6770.880 31.820 91.361
7158.770 26.181 -72.072
7568.890 19.644 76.679
8002.500 19.516 -102.910
8460.950 24.615 -75.032
8945.670 23.552 -122.658
9458.160 22.877 -175.701
10000.000 10.697 43.935
