# Freq(Hz) SPL(dB) Phase (degrees)
10.000 50.499 103.264
10.570 51.296 99.023
11.180 52.085 94.501
11.820 52.847 89.776
12.500 53.590 84.774
13.210 54.298 79.572
13.970 54.986 74.023
14.770 55.639 68.200
15.620 56.257 62.031
16.510 56.828 55.586
17.460 57.355 48.714
18.460 57.822 41.481
19.510 58.218 33.876
20.630 58.536 25.741
21.810 58.750 17.128
23.060 58.836 7.943
24.380 58.753 -1.842
25.780 58.443 -12.327
27.260 57.812 -23.535
28.820 56.707 -35.466
30.470 54.823 -48.146
32.220 51.407 -61.439
34.060 43.398 -73.844
36.010 41.516 83.594
38.080 52.426 70.963
40.260 57.305 55.717
42.560 60.416 40.197
45.000 62.631 24.695
47.580 64.280 9.423
50.310 65.546 -5.576
53.190 66.537 -20.268
56.230 67.329 -34.714
59.460 67.977 -49.078
62.860 68.509 -63.303
66.460 68.955 -77.556
70.270 69.334 -91.908
74.300 69.657 -106.423
78.550 69.937 -121.129
83.050 70.180 -136.152
87.810 70.394 -151.540
92.840 70.583 -167.340
98.160 70.751 176.374
103.780 70.901 159.562
109.730 71.036 142.126
116.020 71.159 124.032
122.660 71.270 105.243
129.690 71.373 85.642
137.120 71.467 65.196
144.970 71.556 43.846
153.280 71.638 21.477
162.060 71.717 -1.941
171.340 71.791 -26.494
181.160 71.862 -52.293
191.540 71.931 -79.396
202.510 71.996 -107.887
214.110 72.060 -137.875
226.380 72.120 -169.471
239.350 72.176 157.244
253.060 72.229 122.162
267.560 72.276 85.153
282.890 72.318 46.113
299.090 72.352 4.937
316.230 72.379 -38.553
334.340 72.399 -84.434
353.500 72.410 -132.915
373.750 72.413 175.894
395.160 72.407 121.796
417.800 72.392 64.588
441.730 72.363 4.078
467.040 72.315 -60.007
493.800 72.236 -127.885
522.090 72.108 160.220
552.000 71.912 84.117
583.620 71.628 3.678
617.050 71.249 -81.199
652.400 70.780 -170.654
689.780 70.235 95.096
729.290 69.630 -4.255
771.080 68.966 -109.226
815.250 68.230 139.749
861.950 67.387 22.133
911.330 66.396 -102.578
963.540 65.206 125.092
1018.740 63.730 -15.533
1077.110 61.827 -165.138
1138.810 59.308 35.783
1204.050 55.997 -133.616
1273.030 51.737 42.922
1345.960 46.932 -165.605
1423.070 46.093 -43.983
1504.590 49.095 88.533
1590.790 51.659 -133.549
1681.920 53.438 -2.243
1778.280 54.511 117.726
1880.150 54.867 -134.920
1987.870 54.642 -40.744
2101.750 53.818 39.186
2222.150 52.422 104.638
2349.460 50.230 154.558
2484.060 47.082 -170.049
2626.360 42.601 -146.096
2776.820 36.903 -122.200
2935.900 34.808 -89.761
3104.100 37.508 -99.543
3281.930 39.347 -152.972
3469.940 39.910 127.379
3668.730 40.054 21.411
3878.910 39.840 -110.580
4101.130 39.280 84.537
4336.070 38.115 -108.247
4584.480 36.368 26.242
4847.120 33.651 127.945
5124.810 28.676 -158.405
5418.400 23.965 -81.867
5728.810 26.571 -50.260
6057.010 29.086 -88.849
6404.000 30.786 174.231
6770.880 28.671 27.488
7158.770 24.593 -166.361
7568.890 18.390 -25.546
8002.500 16.947 109.733
8460.950 25.303 122.334
8945.670 31.628 55.917
9458.160 25.923 -89.143
10000.000 8.972 65.827
