# Freq(Hz) SPL(dB) Phase (degrees)
10.000 52.986 109.305
10.570 53.783 105.408
11.180 54.572 101.255
11.820 55.334 96.916
12.500 56.077 92.326
13.210 56.785 87.552
13.970 57.473 82.463
14.770 58.125 77.125
15.620 58.744 71.470
16.510 59.314 65.563
17.460 59.841 59.266
18.460 60.308 52.639
19.510 60.705 45.670
20.630 61.022 38.213
21.810 61.236 30.316
23.060 61.322 21.889
24.380 61.239 12.905
25.780 60.929 3.270
27.260 60.298 -7.039
28.820 59.193 -18.021
30.470 57.309 -29.697
32.220 53.893 -41.925
34.060 45.884 -53.209
36.010 44.002 105.419
38.080 54.913 94.052
40.260 59.793 80.139
42.560 62.905 66.028
45.000 65.120 52.023
47.580 66.770 38.335
50.310 68.038 25.015
53.190 69.031 12.099
56.230 69.826 -0.470
59.460 70.476 -12.834
62.860 71.013 -24.951
66.460 71.464 -36.966
70.270 71.849 -48.942
74.300 72.182 -60.940
78.550 72.472 -72.984
83.050 72.729 -85.181
87.810 72.959 -97.574
92.840 73.168 -110.202
98.160 73.361 -123.128
103.780 73.541 -136.386
109.730 73.713 -150.056
116.020 73.880 -164.170
122.660 74.045 -178.761
129.690 74.210 166.071
137.120 74.380 150.294
144.970 74.555 133.848
153.280 74.739 116.635
162.060 74.933 98.614
171.340 75.138 79.701
181.160 75.356 59.792
191.540 75.586 38.823
202.510 75.826 16.707
214.110 76.076 -6.657
226.380 76.332 -31.369
239.350 76.590 -57.501
253.060 76.846 -85.137
267.560 77.095 -114.371
282.890 77.332 -145.264
299.090 77.555 -177.864
316.230 77.761 147.733
334.340 77.952 111.518
353.500 78.133 73.385
373.750 78.314 33.292
395.160 78.509 -8.890
417.800 78.735 -53.339
441.730 79.004 -100.277
467.040 79.325 -150.044
493.800 79.690 157.025
522.090 80.078 100.593
552.000 80.449 40.391
583.620 80.761 -23.711
617.050 80.980 -91.716
652.400 81.092 -163.571
689.780 81.103 120.759
729.290 81.035 41.247
771.080 80.910 -42.324
815.250 80.749 -130.134
861.950 80.571 137.485
911.330 80.386 40.135
963.540 80.183 -62.623
1018.740 79.921 -171.063
1077.110 79.574 74.918
1138.810 79.221 -44.388
1204.050 79.021 -169.674
1273.030 79.000 57.485
1345.960 79.025 -83.875
1423.070 79.002 126.209
1504.590 78.931 -32.255
1590.790 78.879 160.364
1681.920 78.890 -17.065
1778.280 78.813 154.269
1880.150 78.500 -44.882
1987.870 78.180 105.797
2101.750 77.938 -115.832
2222.150 77.547 9.524
2349.460 77.070 122.219
2484.060 76.598 -138.865
2626.360 76.095 -54.785
2776.820 75.551 13.710
2935.900 74.984 65.697
3104.100 74.397 100.084
3281.930 73.805 115.622
3469.940 73.121 110.791
3668.730 72.250 84.670
3878.910 71.115 36.465
4101.130 69.661 -33.918
4336.070 68.132 -126.894
4584.480 66.659 114.312
4847.120 65.008 -33.278
5124.810 62.794 149.380
5418.400 59.825 -57.205
5728.810 55.882 66.135
6057.010 49.787 163.405
6404.000 41.978 -88.319
6770.880 47.118 -10.901
7158.770 51.647 -22.885
7568.890 54.223 -90.868
8002.500 55.378 153.039
8460.950 55.632 -12.420
8945.670 55.138 130.085
9458.160 53.592 -139.809
10000.000 51.222 -104.345
