# Freq(Hz) SPL(dB) Phase (degrees)
10.000 50.460 103.156
10.570 51.258 98.908
11.180 52.047 94.380
11.820 52.809 89.648
12.500 53.552 84.639
13.210 54.260 79.428
13.970 54.948 73.871
14.770 55.600 68.040
15.620 56.219 61.862
16.510 56.790 55.407
17.460 57.317 48.524
18.460 57.784 41.280
19.510 58.181 33.664
20.630 58.498 25.517
21.810 58.713 16.892
23.060 58.799 7.693
24.380 58.716 -2.106
25.780 58.406 -12.607
27.260 57.775 -23.831
28.820 56.671 -35.779
30.470 54.787 -48.476
32.220 51.371 -61.789
34.060 43.362 -74.214
36.010 41.481 83.203
38.080 52.391 70.550
40.260 57.271 55.280
42.560 60.383 39.735
45.000 62.598 24.207
47.580 64.248 8.907
50.310 65.514 -6.122
53.190 66.507 -20.845
56.230 67.300 -35.324
59.460 67.948 -49.722
62.860 68.482 -63.985
66.460 68.929 -78.277
70.270 69.309 -92.669
74.300 69.635 -107.228
78.550 69.916 -121.980
83.050 70.161 -137.052
87.810 70.378 -152.491
92.840 70.569 -168.345
98.160 70.740 175.311
103.780 70.893 158.438
109.730 71.032 140.938
116.020 71.159 122.776
122.660 71.275 103.916
129.690 71.382 84.240
137.120 71.483 63.715
144.970 71.577 42.281
153.280 71.667 19.824
162.060 71.753 -3.687
171.340 71.837 -28.338
181.160 71.918 -54.240
191.540 71.997 -81.451
202.510 72.076 -110.056
214.110 72.153 -140.164
226.380 72.229 -171.885
239.350 72.303 154.699
253.060 72.376 119.480
267.560 72.446 82.327
282.890 72.513 43.136
299.090 72.576 1.804
316.230 72.636 -41.850
334.340 72.693 -87.902
353.500 72.746 -136.561
373.750 72.797 172.061
395.160 72.846 117.767
417.800 72.892 60.351
441.730 72.934 -0.380
467.040 72.966 -64.701
493.800 72.976 -132.834
522.090 72.949 155.002
552.000 72.866 78.615
583.620 72.710 -2.118
617.050 72.474 -87.294
652.400 72.167 -177.046
689.780 71.808 88.411
729.290 71.413 -11.215
771.080 70.989 -116.426
815.250 70.526 132.388
861.950 70.000 14.762
911.330 69.382 -109.695
963.540 68.643 118.660
1018.740 67.740 -20.577
1077.110 66.603 -167.686
1138.810 65.167 37.503
1204.050 63.444 -124.638
1273.030 61.514 65.833
1345.960 59.451 -111.434
1423.070 57.268 62.617
1504.590 54.935 -132.555
1590.790 52.321 22.696
1681.920 49.145 169.699
1778.280 45.566 -44.133
1880.150 44.461 102.322
1987.870 46.051 -137.162
2101.750 47.485 -45.137
2222.150 48.102 25.761
2349.460 47.970 76.277
2484.060 46.827 108.644
2626.360 44.411 124.739
2776.820 40.632 132.527
2935.900 38.240 144.040
3104.100 40.596 126.773
3281.930 43.171 63.563
3469.940 44.266 -33.799
3668.730 43.944 -160.446
3878.910 42.264 46.144
4101.130 39.127 -130.439
4336.070 34.987 30.894
4584.480 31.350 179.421
4847.120 28.880 -75.792
5124.810 26.413 -3.059
5418.400 23.637 61.722
5728.810 26.832 70.913
6057.010 28.921 8.110
6404.000 28.519 -95.407
6770.880 28.732 110.441
7158.770 25.718 -99.349
7568.890 22.627 27.626
8002.500 18.776 127.250
8460.950 23.488 122.143
8945.670 15.205 -12.514
9458.160 9.021 116.902
10000.000 10.351 91.395
