# Freq(Hz) SPL(dB) Phase (degrees)
10.000 53.038 109.414
10.570 53.836 105.523
11.180 54.625 101.377
11.820 55.387 97.045
12.500 56.129 92.462
13.210 56.837 87.697
13.970 57.526 82.616
14.770 58.178 77.286
15.620 58.797 71.641
16.510 59.367 65.743
17.460 59.894 59.457
18.460 60.361 52.840
19.510 60.758 45.883
20.630 61.075 38.439
21.810 61.290 30.555
23.060 61.376 22.141
24.380 61.293 13.172
25.780 60.983 3.552
27.260 60.352 -6.741
28.820 59.247 -17.707
30.470 57.364 -29.364
32.220 53.948 -41.573
34.060 45.939 -52.837
36.010 44.058 105.812
38.080 54.969 94.468
40.260 59.849 80.579
42.560 62.961 66.492
45.000 65.177 52.513
47.580 66.828 38.853
50.310 68.096 25.563
53.190 69.091 12.678
56.230 69.886 0.142
59.460 70.538 -12.188
62.860 71.075 -24.268
66.460 71.528 -36.245
70.270 71.915 -48.182
74.300 72.249 -60.137
78.550 72.541 -72.138
83.050 72.800 -84.290
87.810 73.032 -96.635
92.840 73.244 -109.213
98.160 73.440 -122.087
103.780 73.623 -135.292
109.730 73.799 -148.908
116.020 73.970 -162.966
122.660 74.139 -177.501
129.690 74.309 167.388
137.120 74.483 151.667
144.970 74.664 135.279
153.280 74.853 118.122
162.060 75.053 100.156
171.340 75.263 81.297
181.160 75.486 61.442
191.540 75.721 40.525
202.510 75.966 18.463
214.110 76.219 -4.847
226.380 76.477 -29.501
239.350 76.736 -55.569
253.060 76.992 -83.134
267.560 77.241 -112.285
282.890 77.476 -143.081
299.090 77.696 -175.564
316.230 77.900 150.173
334.340 78.089 114.126
353.500 78.271 76.189
373.750 78.456 36.322
395.160 78.662 -5.614
417.800 78.905 -49.813
441.730 79.201 -96.518
467.040 79.555 -146.099
493.800 79.957 161.087
522.090 80.377 104.696
552.000 80.772 44.477
583.620 81.093 -19.658
617.050 81.305 -87.658
652.400 81.399 -159.419
689.780 81.389 125.135
729.290 81.308 45.980
771.080 81.189 -37.142
815.250 81.060 -124.506
861.950 80.934 143.438
911.330 80.801 46.228
963.540 80.629 -56.520
1018.740 80.367 -164.924
1077.110 80.004 81.273
1138.810 79.648 -37.634
1204.050 79.468 -162.523
1273.030 79.465 64.949
1345.960 79.499 -76.029
1423.070 79.498 134.539
1504.590 79.473 -23.548
1590.790 79.445 169.229
1681.920 79.424 -7.922
1778.280 79.310 164.159
1880.150 79.026 -34.052
1987.870 78.751 117.273
2101.750 78.499 -103.617
2222.150 78.125 23.019
2349.460 77.734 137.042
2484.060 77.381 -122.824
2626.360 77.021 -37.595
2776.820 76.642 31.977
2935.900 76.251 84.963
3104.100 75.855 120.323
3281.930 75.441 136.697
3469.940 74.929 133.135
3668.730 74.288 108.596
3878.910 73.459 62.431
4101.130 72.513 -5.831
4336.070 71.630 -97.748
4584.480 70.802 143.920
4847.120 69.830 -2.937
5124.810 68.546 -178.795
5418.400 67.074 -24.428
5728.810 65.396 97.572
6057.010 63.347 -174.260
6404.000 60.892 -120.913
6770.880 57.944 -105.897
7158.770 53.720 -129.159
7568.890 46.976 175.215
8002.500 40.529 141.217
8460.950 47.248 25.119
8945.670 50.955 -176.896
9458.160 52.905 -80.433
10000.000 53.669 -41.235
