# Freq(Hz) SPL(dB) Phase (degrees)
10.000 53.128 109.599
10.570 53.926 105.719
11.180 54.715 101.584
11.820 55.477 97.264
12.500 56.219 92.694
13.210 56.927 87.941
13.970 57.616 82.874
14.770 58.268 77.560
15.620 58.887 71.930
16.510 59.458 66.049
17.460 59.985 59.780
18.460 60.452 53.182
19.510 60.849 46.244
20.630 61.167 38.820
21.810 61.381 30.958
23.060 61.467 22.568
24.380 61.385 13.623
25.780 61.075 4.029
27.260 60.445 -6.237
28.820 59.340 -17.173
30.470 57.457 -28.801
32.220 54.042 -40.978
34.060 46.034 -52.207
36.010 44.153 106.477
38.080 55.064 95.171
40.260 59.946 81.322
42.560 63.059 67.278
45.000 65.276 53.344
47.580 66.928 39.731
50.310 68.197 26.490
53.190 69.193 13.657
56.230 69.990 1.176
59.460 70.644 -11.096
62.860 71.183 -23.115
66.460 71.638 -35.028
70.270 72.027 -46.897
74.300 72.364 -58.782
78.550 72.659 -70.709
83.050 72.922 -82.784
87.810 73.159 -95.049
92.840 73.375 -107.545
98.160 73.575 -120.333
103.780 73.765 -133.450
109.730 73.946 -146.975
116.020 74.124 -160.941
122.660 74.300 -175.382
129.690 74.478 169.601
137.120 74.661 153.975
144.970 74.850 137.680
153.280 75.048 120.616
162.060 75.256 102.742
171.340 75.476 83.974
181.160 75.707 64.208
191.540 75.949 43.381
202.510 76.201 21.410
214.110 76.459 -1.806
226.380 76.721 -26.358
239.350 76.982 -52.316
253.060 77.238 -79.754
267.560 77.484 -108.758
282.890 77.717 -139.379
299.090 77.933 -171.655
316.230 78.133 154.331
334.340 78.321 118.579
353.500 78.507 80.986
373.750 78.704 41.503
395.160 78.933 -0.023
417.800 79.212 -43.818
441.730 79.558 -90.170
467.040 79.970 -139.490
493.800 80.430 167.836
522.090 80.899 111.470
552.000 81.323 51.206
583.620 81.648 -12.969
617.050 81.842 -80.913
652.400 81.903 -152.440
689.780 81.861 132.575
729.290 81.768 54.096
771.080 81.677 -28.243
815.250 81.621 -114.913
861.950 81.591 153.449
911.330 81.542 56.339
963.540 81.405 -46.455
1018.740 81.130 -154.770
1077.110 80.735 91.873
1138.810 80.381 -26.305
1204.050 80.243 -150.540
1273.030 80.274 77.452
1345.960 80.331 -62.860
1423.070 80.393 148.417
1504.590 80.440 -9.334
1590.790 80.399 -176.453
1681.920 80.279 7.151
1778.280 80.141 -179.171
1880.150 79.950 -16.151
1987.870 79.669 135.813
2101.750 79.315 -83.244
2222.150 79.020 46.016
2349.460 78.795 162.196
2484.060 78.637 -95.514
2626.360 78.526 -8.223
2776.820 78.442 63.156
2935.900 78.347 117.626
3104.100 78.212 154.313
3281.930 78.007 172.405
3469.940 77.714 171.025
3668.730 77.309 149.777
3878.910 76.996 107.934
4101.130 76.862 42.868
4336.070 76.808 -47.620
4584.480 76.636 -164.908
4847.120 76.298 50.782
5124.810 75.926 -121.668
5418.400 75.571 35.551
5728.810 75.185 160.578
6057.010 74.789 -108.203
6404.000 74.387 -53.084
6770.880 73.933 -35.988
7158.770 73.470 -58.885
7568.890 72.977 -124.459
8002.500 72.434 125.288
8460.950 71.870 -32.408
8945.670 71.300 119.655
9458.160 70.668 -141.679
10000.000 69.961 -98.636
