# Freq(Hz) SPL(dB) Phase (degrees)
10.000 50.465 103.168
10.570 51.262 98.921
11.180 52.051 94.394
11.820 52.813 89.662
12.500 53.556 84.654
13.210 54.264 79.444
13.970 54.952 73.888
14.770 55.605 68.058
15.620 56.223 61.881
16.510 56.794 55.427
17.460 57.321 48.545
18.460 57.788 41.303
19.510 58.185 33.688
20.630 58.502 25.542
21.810 58.717 16.918
23.060 58.803 7.721
24.380 58.720 -2.077
25.780 58.410 -12.576
27.260 57.779 -23.798
28.820 56.675 -35.744
30.470 54.791 -48.439
32.220 51.375 -61.750
34.060 43.366 -74.173
36.010 41.485 83.247
38.080 52.395 70.596
40.260 57.275 55.329
42.560 60.387 39.787
45.000 62.602 24.262
47.580 64.251 8.965
50.310 65.518 -6.061
53.190 66.510 -20.781
56.230 67.303 -35.256
59.460 67.951 -49.650
62.860 68.485 -63.909
66.460 68.932 -78.197
70.270 69.312 -92.584
74.300 69.637 -107.138
78.550 69.918 -121.885
83.050 70.164 -136.951
87.810 70.380 -152.385
92.840 70.571 -168.233
98.160 70.741 175.430
103.780 70.894 158.564
109.730 71.033 141.071
116.020 71.159 122.916
122.660 71.274 104.064
129.690 71.381 84.396
137.120 71.481 63.880
144.970 71.575 42.455
153.280 71.664 20.008
162.060 71.749 -3.493
171.340 71.831 -28.133
181.160 71.911 -54.024
191.540 71.990 -81.223
202.510 72.067 -109.815
214.110 72.142 -139.911
226.380 72.217 -171.618
239.350 72.289 154.980
253.060 72.359 119.776
267.560 72.427 82.639
282.890 72.491 43.464
299.090 72.551 2.148
316.230 72.607 -41.488
334.340 72.660 -87.522
353.500 72.708 -136.163
373.750 72.754 172.478
395.160 72.797 118.204
417.800 72.837 60.808
441.730 72.871 0.099
467.040 72.894 -64.199
493.800 72.895 -132.307
522.090 72.857 155.554
552.000 72.762 79.192
583.620 72.592 -1.514
617.050 72.342 -86.664
652.400 72.019 -176.391
689.780 71.641 89.089
729.290 71.225 -10.517
771.080 70.778 -115.713
815.250 70.290 133.108
861.950 69.735 15.475
911.330 69.083 -109.013
963.540 68.306 119.277
1018.740 67.356 -20.075
1077.110 66.161 -167.364
1138.810 64.646 37.569
1204.050 62.816 -124.897
1273.030 60.739 65.182
1345.960 58.476 -112.514
1423.070 56.012 61.046
1504.590 53.263 -134.592
1590.790 49.976 20.509
1681.920 45.543 169.585
1778.280 40.442 -27.603
1880.150 42.304 134.102
1987.870 45.581 -113.134
2101.750 47.276 -27.069
2222.150 47.837 40.362
2349.460 47.503 88.605
2484.060 46.119 119.452
2626.360 43.401 134.485
2776.820 39.222 141.558
2935.900 36.372 153.750
3104.100 38.506 137.204
3281.930 40.800 73.346
3469.940 41.509 -25.167
3668.730 40.586 -153.732
3878.910 38.034 49.561
4101.130 33.105 -131.636
4336.070 24.830 24.785
4584.480 18.478 -119.783
4847.120 19.799 -1.197
5124.810 18.505 55.535
5418.400 15.056 117.846
5728.810 16.394 140.445
6057.010 16.232 103.679
6404.000 22.453 17.097
6770.880 23.225 -153.776
7158.770 19.610 -0.033
7568.890 17.324 87.349
8002.500 10.379 -141.886
8460.950 5.134 -112.513
8945.670 16.463 -124.030
9458.160 17.999 74.407
10000.000 10.915 -133.441
