# Freq(Hz) SPL(dB) Phase (degrees)
10.000 52.261 107.727
10.570 53.059 103.740
11.180 53.847 99.491
11.820 54.609 95.051
12.500 55.351 90.353
13.210 56.058 85.468
13.970 56.746 80.258
14.770 57.398 74.794
15.620 58.016 69.005
16.510 58.585 62.957
17.460 59.111 56.510
18.460 59.577 49.725
19.510 59.973 42.590
20.630 60.289 34.957
21.810 60.502 26.873
23.060 60.586 18.248
24.380 60.502 9.056
25.780 60.189 -0.801
27.260 59.556 -11.344
28.820 58.449 -22.573
30.470 56.562 -34.510
32.220 53.143 -47.015
34.060 45.131 -58.590
36.010 43.245 99.730
38.080 54.151 88.035
40.260 59.026 73.777
42.560 62.132 59.302
45.000 64.341 44.910
47.580 65.984 30.814
50.310 67.244 17.062
53.190 68.228 3.690
56.230 69.013 -9.359
59.460 69.652 -22.234
62.860 70.175 -34.886
66.460 70.611 -47.468
70.270 70.979 -60.043
74.300 71.292 -72.670
78.550 71.560 -85.376
83.050 71.792 -98.270
87.810 71.993 -111.394
92.840 72.170 -124.788
98.160 72.326 -138.513
103.780 72.464 -152.603
109.730 72.589 -167.138
116.020 72.703 177.855
122.660 72.808 162.346
129.690 72.908 146.240
137.120 73.005 129.510
144.970 73.101 112.106
153.280 73.199 93.935
162.060 73.302 74.965
171.340 73.412 55.123
181.160 73.532 34.308
191.540 73.664 12.464
202.510 73.810 -10.495
214.110 73.972 -34.675
226.380 74.150 -60.185
239.350 74.345 -87.116
253.060 74.556 -115.579
267.560 74.781 -145.705
282.890 75.018 -177.601
299.090 75.264 148.630
316.230 75.516 112.824
334.340 75.770 74.904
353.500 76.023 34.689
373.750 76.271 -7.923
395.160 76.509 -53.105
417.800 76.729 -101.030
441.730 76.918 -151.847
467.040 77.056 154.264
493.800 77.121 97.233
522.090 77.092 37.070
552.000 76.960 -26.122
583.620 76.750 -92.194
617.050 76.519 -161.133
652.400 76.346 126.744
689.780 76.285 50.746
729.290 76.330 -29.974
771.080 76.407 -116.198
815.250 76.410 151.819
861.950 76.247 54.171
911.330 75.883 -48.740
963.540 75.360 -156.518
1018.740 74.771 90.877
1077.110 74.218 -27.048
1138.810 73.757 -151.037
1204.050 73.402 77.960
1273.030 73.114 -60.914
1345.960 72.814 151.856
1423.070 72.473 -3.790
1504.590 72.164 -168.078
1590.790 71.964 17.744
1681.920 71.775 -168.003
1778.280 71.330 -5.851
1880.150 70.521 145.489
1987.870 69.585 -73.621
2101.750 68.689 54.696
2222.150 67.607 168.582
2349.460 66.154 -92.193
2484.060 64.249 -7.799
2626.360 61.794 60.879
2776.820 58.472 112.249
2935.900 53.492 143.301
3104.100 43.494 133.717
3281.930 46.265 15.635
3469.940 53.311 -20.835
3668.730 56.569 -71.730
3878.910 57.985 -143.017
4101.130 58.285 122.840
4336.070 57.807 5.623
4584.480 56.906 -138.213
4847.120 55.286 47.961
5124.810 52.306 -157.963
5418.400 46.948 -40.181
5728.810 33.122 4.796
6057.010 43.438 -51.493
6404.000 48.863 -44.486
6770.880 50.588 -74.648
7158.770 49.651 -146.168
7568.890 46.615 98.811
8002.500 39.304 -67.236
8460.950 31.119 -65.403
8945.670 41.403 12.546
9458.160 43.761 52.940
10000.000 41.833 27.620
