# Freq(Hz) SPL(dB) Phase (degrees)
10.000 50.613 103.583
10.570 51.410 99.360
11.180 52.199 94.857
11.820 52.961 90.152
12.500 53.703 85.172
13.210 54.411 79.992
13.970 55.099 74.467
14.770 55.752 68.670
15.620 56.370 62.529
16.510 56.940 56.111
17.460 57.467 49.269
18.460 57.934 42.068
19.510 58.330 34.497
20.630 58.647 26.397
21.810 58.861 17.822
23.060 58.946 8.677
24.380 58.863 -1.066
25.780 58.552 -11.506
27.260 57.921 -22.667
28.820 56.815 -34.548
30.470 54.930 -47.175
32.220 51.514 -60.413
34.060 43.503 -72.760
36.010 41.620 84.741
38.080 52.529 72.176
40.260 57.407 56.999
42.560 60.517 41.553
45.000 62.730 26.129
47.580 64.377 10.939
50.310 65.641 -3.973
53.190 66.630 -18.573
56.230 67.419 -32.921
59.460 68.064 -47.181
62.860 68.593 -61.298
66.460 69.035 -75.436
70.270 69.410 -89.665
74.300 69.729 -104.050
78.550 70.003 -118.620
83.050 70.241 -133.498
87.810 70.449 -148.732
92.840 70.631 -164.370
98.160 70.791 179.516
103.780 70.932 162.886
109.730 71.057 145.643
116.020 71.169 127.752
122.660 71.268 109.180
129.690 71.356 89.808
137.120 71.435 69.605
144.970 71.506 48.511
153.280 71.569 26.415
162.060 71.625 3.286
171.340 71.675 -20.961
181.160 71.719 -46.435
191.540 71.756 -73.193
202.510 71.787 -101.318
214.110 71.811 -130.918
226.380 71.826 -162.101
239.350 71.832 165.053
253.060 71.827 130.439
267.560 71.810 93.929
282.890 71.777 55.421
299.090 71.728 14.816
316.230 71.658 -28.060
334.340 71.567 -73.278
353.500 71.451 -121.037
373.750 71.307 -171.439
395.160 71.131 135.338
417.800 70.920 79.109
441.730 70.665 19.707
467.040 70.355 -43.108
493.800 69.976 -109.520
522.090 69.503 -179.712
552.000 68.908 106.166
583.620 68.162 28.049
617.050 67.238 -54.071
652.400 66.119 -140.174
689.780 64.792 129.780
729.290 63.235 35.898
771.080 61.411 -61.662
815.250 59.259 -162.119
861.950 56.746 96.513
911.330 54.258 -1.289
963.540 53.572 -94.672
1018.740 55.652 159.498
1077.110 58.414 32.229
1138.810 60.670 -111.655
1204.050 62.221 91.845
1273.030 63.169 -74.930
1345.960 63.662 108.634
1423.070 63.855 -77.461
1504.590 63.803 86.098
1590.790 63.537 -121.622
1681.920 62.999 18.453
1778.280 62.059 145.856
1880.150 60.615 -99.026
1987.870 58.735 3.656
2101.750 56.341 93.996
2222.150 53.534 172.273
2349.460 50.410 -121.501
2484.060 47.070 -68.536
2626.360 43.213 -29.001
2776.820 38.608 4.481
2935.900 36.849 42.035
3104.100 39.440 40.593
3281.930 41.235 -2.528
3469.940 41.682 -71.308
3668.730 42.174 -164.065
3878.910 42.965 74.751
4101.130 43.426 -82.898
4336.070 42.375 86.888
4584.480 39.653 -133.402
4847.120 35.226 -15.762
5124.810 29.959 81.808
5418.400 26.693 177.680
5728.810 31.234 -147.416
6057.010 33.393 173.673
6404.000 32.938 80.810
6770.880 29.383 -29.266
7158.770 25.367 156.359
7568.890 21.077 -45.826
8002.500 20.147 104.161
8460.950 25.780 131.521
8945.670 23.126 97.602
9458.160 19.723 13.201
10000.000 12.154 -118.132
