# Freq(Hz) SPL(dB) Phase (degrees)
10.000 51.046 104.752
10.570 51.843 100.595
11.180 52.631 96.164
11.820 53.393 91.534
12.500 54.135 86.634
13.210 54.843 81.537
13.970 55.530 76.101
14.770 56.182 70.398
15.620 56.800 64.355
16.510 57.370 58.042
17.460 57.896 51.312
18.460 58.362 44.228
19.510 58.757 36.779
20.630 59.073 28.811
21.810 59.286 20.375
23.060 59.370 11.376
24.380 59.286 1.788
25.780 58.973 -8.488
27.260 58.340 -19.475
28.820 57.233 -31.173
30.470 55.346 -43.605
32.220 51.927 -56.637
34.060 43.914 -68.767
36.010 42.029 88.964
38.080 52.934 76.643
40.260 57.809 61.725
42.560 60.915 46.551
45.000 63.123 31.417
47.580 64.765 16.534
50.310 66.024 1.947
53.190 67.007 -12.309
56.230 67.790 -26.294
59.460 68.426 -40.166
62.860 68.947 -53.873
66.460 69.380 -67.576
70.270 69.744 -81.343
74.300 70.051 -95.238
78.550 70.313 -109.288
83.050 70.536 -123.612
87.810 70.727 -138.258
92.840 70.891 -153.270
98.160 71.031 -168.717
103.780 71.149 175.362
109.730 71.250 158.878
116.020 71.333 141.796
122.660 71.401 124.087
129.690 71.455 105.640
137.120 71.496 86.427
144.970 71.524 66.394
153.280 71.540 45.440
162.060 71.544 23.538
171.340 71.536 0.614
181.160 71.515 -23.429
191.540 71.481 -48.638
202.510 71.432 -75.080
214.110 71.368 -102.847
226.380 71.288 -132.023
239.350 71.188 -162.665
253.060 71.068 165.152
267.560 70.925 131.341
282.890 70.758 95.844
299.090 70.568 58.618
316.230 70.354 19.566
334.340 70.122 -21.309
353.500 69.882 -64.103
373.750 69.651 -108.830
395.160 69.456 -155.596
417.800 69.331 155.418
441.730 69.317 103.920
467.040 69.444 49.391
493.800 69.714 -8.763
522.090 70.090 -71.132
552.000 70.509 -138.135
583.620 70.907 150.065
617.050 71.240 73.452
652.400 71.493 -7.990
689.780 71.669 -94.375
729.290 71.768 174.084
771.080 71.774 77.017
815.250 71.654 -25.762
861.950 71.376 -134.411
911.330 70.919 111.029
963.540 70.282 -9.461
1018.740 69.483 -136.002
1077.110 68.527 91.201
1138.810 67.412 -47.860
1204.050 66.168 167.000
1273.030 64.952 16.026
1345.960 64.018 -141.554
1423.070 63.553 51.862
1504.590 63.472 -126.556
1590.790 63.469 41.091
1681.920 63.169 -165.703
1778.280 62.262 -26.326
1880.150 60.537 100.831
1987.870 57.949 -142.470
2101.750 54.597 -31.969
2222.150 51.836 74.595
2349.460 50.631 164.251
2484.060 49.078 -130.477
2626.360 45.753 -82.180
2776.820 40.461 -35.977
2935.900 38.085 26.119
3104.100 41.629 51.020
3281.930 45.255 28.572
3469.940 47.120 -29.867
3668.730 47.020 -111.916
3878.910 46.322 145.333
4101.130 45.424 16.349
4336.070 44.058 -140.177
4584.480 41.806 31.876
4847.120 37.835 177.934
5124.810 31.897 -52.939
5418.400 29.856 77.819
5728.810 33.481 148.272
6057.010 36.175 158.266
6404.000 37.056 109.729
6770.880 36.039 16.384
7158.770 32.474 -106.427
7568.890 23.991 91.759
8002.500 23.107 -64.969
8460.950 26.701 5.145
8945.670 27.636 50.183
9458.160 24.903 5.541
10000.000 15.069 -96.265
