# Freq(Hz) SPL(dB) Phase (degrees)
10.000 50.465 103.168
10.570 51.262 98.921
11.180 52.051 94.394
11.820 52.813 89.662
12.500 53.556 84.654
13.210 54.264 79.444
13.970 54.952 73.888
14.770 55.605 68.058
15.620 56.223 61.881
16.510 56.794 55.427
17.460 57.321 48.545
18.460 57.788 41.303
19.510 58.185 33.688
20.630 58.502 25.542
21.810 58.717 16.918
23.060 58.803 7.721
24.380 58.720 -2.077
25.780 58.410 -12.576
27.260 57.779 -23.798
28.820 56.675 -35.744
30.470 54.791 -48.439
32.220 51.375 -61.750
34.060 43.366 -74.173
36.010 41.485 83.247
38.080 52.395 70.596
40.260 57.275 55.329
42.560 60.387 39.787
45.000 62.602 24.262
47.580 64.251 8.965
50.310 65.518 -6.061
53.190 66.510 -20.781
56.230 67.303 -35.256
59.460 67.951 -49.650
62.860 68.485 -63.909
66.460 68.932 -78.197
70.270 69.312 -92.584
74.300 69.637 -107.138
78.550 69.918 -121.885
83.050 70.164 -136.951
87.810 70.380 -152.385
92.840 70.571 -168.233
98.160 70.741 175.430
103.780 70.894 158.564
109.730 71.033 141.071
116.020 71.159 122.916
122.660 71.274 104.064
129.690 71.381 84.396
137.120 71.481 63.880
144.970 71.575 42.455
153.280 71.664 20.008
162.060 71.749 -3.493
171.340 71.831 -28.133
181.160 71.911 -54.024
191.540 71.990 -81.223
202.510 72.067 -109.815
214.110 72.142 -139.911
226.380 72.217 -171.618
239.350 72.289 154.980
253.060 72.359 119.776
267.560 72.427 82.639
282.890 72.491 43.464
299.090 72.551 2.148
316.230 72.607 -41.488
334.340 72.660 -87.522
353.500 72.708 -136.163
373.750 72.754 172.478
395.160 72.797 118.204
417.800 72.837 60.808
441.730 72.871 0.099
467.040 72.894 -64.199
493.800 72.895 -132.307
522.090 72.857 155.554
552.000 72.762 79.192
583.620 72.592 -1.514
617.050 72.342 -86.664
652.400 72.019 -176.392
689.780 71.641 89.088
729.290 71.225 -10.518
771.080 70.778 -115.713
815.250 70.290 133.108
861.950 69.735 15.474
911.330 69.083 -109.014
963.540 68.306 119.276
1018.740 67.356 -20.077
1077.110 66.161 -167.366
1138.810 64.646 37.566
1204.050 62.816 -124.901
1273.030 60.739 65.177
1345.960 58.476 -112.523
1423.070 56.013 61.035
1504.590 53.264 -134.619
1590.790 49.975 20.484
1681.920 45.541 169.545
1778.280 40.427 -27.533
1880.150 42.325 134.012
1987.870 45.577 -113.102
2101.750 47.272 -27.046
2222.150 47.835 40.382
2349.460 47.507 88.588
2484.060 46.117 119.458
2626.360 43.398 134.487
2776.820 39.223 141.543
2935.900 36.367 153.748
3104.100 38.501 137.199
3281.930 40.826 73.515
3469.940 41.504 -25.196
3668.730 40.571 -153.733
3878.910 37.998 49.168
4101.130 33.081 -131.577
4336.070 24.752 24.239
4584.480 18.376 -119.256
4847.120 19.729 -1.018
5124.810 18.399 55.258
5418.400 14.926 118.163
5728.810 16.418 138.499
6057.010 16.508 105.537
6404.000 22.519 17.616
6770.880 23.272 -153.765
7158.770 20.844 -7.924
7568.890 17.668 86.830
8002.500 10.153 -139.626
8460.950 5.049 -104.629
8945.670 16.290 -131.218
9458.160 18.372 63.652
10000.000 10.651 -121.403
