# Freq(Hz) SPL(dB) Phase (degrees)
10.000 50.567 103.454
10.570 51.364 99.224
11.180 52.153 94.714
11.820 52.915 90.000
12.500 53.657 85.012
13.210 54.365 79.823
13.970 55.053 74.288
14.770 55.706 68.481
15.620 56.324 62.328
16.510 56.895 55.899
17.460 57.421 49.045
18.460 57.888 41.831
19.510 58.285 34.246
20.630 58.602 26.132
21.810 58.816 17.542
23.060 58.902 8.381
24.380 58.819 -1.379
25.780 58.508 -11.838
27.260 57.877 -23.017
28.820 56.771 -34.919
30.470 54.887 -47.567
32.220 51.470 -60.827
34.060 43.460 -73.197
36.010 41.578 84.278
38.080 52.487 71.686
40.260 57.366 56.482
42.560 60.476 41.006
45.000 62.689 25.551
47.580 64.337 10.327
50.310 65.602 -4.620
53.190 66.592 -19.257
56.230 67.383 -33.645
59.460 68.028 -47.947
62.860 68.558 -62.108
66.460 69.002 -76.292
70.270 69.378 -90.571
74.300 69.699 -105.009
78.550 69.976 -119.634
83.050 70.216 -134.570
87.810 70.426 -149.867
92.840 70.610 -165.571
98.160 70.773 178.245
103.780 70.918 161.540
109.730 71.047 144.219
116.020 71.163 126.245
122.660 71.267 107.584
129.690 71.361 88.118
137.120 71.446 67.816
144.970 71.523 46.616
153.280 71.594 24.408
162.060 71.659 1.160
171.340 71.719 -23.214
181.160 71.773 -48.823
191.540 71.823 -75.725
202.510 71.867 -104.003
214.110 71.906 -133.767
226.380 71.939 -165.125
239.350 71.965 161.842
253.060 71.983 127.028
267.560 71.991 90.302
282.890 71.988 51.562
299.090 71.972 10.706
316.230 71.941 -32.443
334.340 71.894 -77.961
353.500 71.829 -126.050
373.750 71.745 -176.819
395.160 71.639 129.544
417.800 71.508 72.842
441.730 71.346 12.894
467.040 71.145 -50.560
493.800 70.890 -117.729
522.090 70.561 171.177
552.000 70.133 95.973
583.620 69.582 16.545
617.050 68.891 -67.195
652.400 68.051 -155.359
689.780 67.063 111.874
729.290 65.918 14.253
771.080 64.588 -88.693
815.250 63.004 162.638
861.950 61.025 47.724
911.330 58.373 -73.923
963.540 54.384 157.237
1018.740 46.326 21.125
1077.110 41.266 50.918
1138.810 52.570 -101.388
1204.050 56.794 96.002
1273.030 59.068 -74.730
1345.960 60.383 106.056
1423.070 61.182 -82.095
1504.590 61.637 79.760
1590.790 61.843 -129.557
1681.920 61.781 8.851
1778.280 61.341 134.262
1880.150 60.444 -113.289
1987.870 59.100 -14.060
2101.750 57.234 71.486
2222.150 54.841 143.436
2349.460 51.806 -158.062
2484.060 48.101 -112.472
2626.360 43.644 -77.704
2776.820 38.691 -46.510
2935.900 36.605 -13.705
3104.100 38.648 -17.889
3281.930 39.892 -62.419
3469.940 40.152 -135.488
3668.730 39.578 130.686
3878.910 39.685 15.630
4101.130 40.933 -132.634
4336.070 41.591 37.569
4584.480 40.801 170.560
4847.120 37.534 -89.319
5124.810 31.579 -9.553
5418.400 27.017 78.612
5728.810 29.467 115.941
6057.010 31.839 85.862
6404.000 33.343 -1.648
6770.880 31.346 -146.229
7158.770 28.105 37.509
7568.890 22.795 -168.756
8002.500 20.059 -28.482
8460.950 26.202 -4.971
8945.670 25.990 -67.758
9458.160 22.189 160.327
10000.000 6.712 63.971
