# Freq(Hz) SPL(dB) Phase (degrees)
10.000 51.345 105.525
10.570 52.142 101.413
11.180 52.931 97.029
11.820 53.692 92.448
12.500 54.434 87.601
13.210 55.141 82.559
13.970 55.829 77.182
14.770 56.481 71.541
15.620 57.098 65.564
16.510 57.668 59.320
17.460 58.194 52.663
18.460 58.659 45.657
19.510 59.054 38.290
20.630 59.370 30.409
21.810 59.583 22.064
23.060 59.667 13.163
24.380 59.582 3.678
25.780 59.269 -6.489
27.260 58.635 -17.361
28.820 57.527 -28.937
30.470 55.640 -41.240
32.220 52.220 -54.135
34.060 44.206 -66.120
36.010 42.320 91.763
38.080 53.224 79.606
40.260 58.098 64.859
42.560 61.202 49.867
45.000 63.409 34.926
47.580 65.050 20.248
50.310 66.307 5.879
53.190 67.288 -8.147
56.230 68.069 -21.888
59.460 68.703 -35.500
62.860 69.221 -48.932
66.460 69.651 -62.342
70.270 70.012 -75.797
74.300 70.316 -89.360
78.550 70.574 -103.057
83.050 70.793 -117.005
87.810 70.980 -131.249
92.840 71.139 -145.833
98.160 71.274 -160.822
103.780 71.388 -176.254
109.730 71.483 167.785
116.020 71.561 151.266
122.660 71.623 134.158
129.690 71.672 116.358
137.120 71.707 97.840
144.970 71.731 78.556
153.280 71.743 58.410
162.060 71.744 37.380
171.340 71.735 15.399
181.160 71.716 -7.623
191.540 71.687 -31.726
202.510 71.650 -56.971
214.110 71.605 -83.439
226.380 71.552 -111.207
239.350 71.492 -140.326
253.060 71.429 -170.867
267.560 71.365 157.082
282.890 71.305 123.454
299.090 71.256 88.184
316.230 71.228 51.129
334.340 71.235 12.220
353.500 71.293 -28.757
373.750 71.418 -71.974
395.160 71.625 -117.732
417.800 71.923 -166.393
441.730 72.306 141.652
467.040 72.749 85.952
493.800 73.210 26.159
522.090 73.634 -37.965
552.000 73.965 -106.510
583.620 74.159 -179.419
617.050 74.198 103.421
652.400 74.085 22.071
689.780 73.838 -63.527
729.290 73.471 -153.521
771.080 72.983 111.783
815.250 72.356 12.278
861.950 71.575 -92.088
911.330 70.647 158.794
963.540 69.623 45.104
1018.740 68.615 -73.227
1077.110 67.765 163.242
1138.810 67.191 33.302
1204.050 66.899 -104.792
1273.030 66.763 107.435
1345.960 66.580 -50.739
1423.070 66.175 140.766
1504.590 65.462 -37.398
1590.790 64.496 135.483
1681.920 63.476 -60.446
1778.280 62.661 93.230
1880.150 62.043 -126.495
1987.870 61.264 -2.003
2101.750 59.813 106.925
2222.150 57.426 -157.020
2349.460 54.262 -70.913
2484.060 50.884 4.187
2626.360 46.880 65.937
2776.820 40.830 122.898
2935.900 37.955 -148.863
3104.100 43.469 -113.299
3281.930 47.467 -128.154
3469.940 49.557 -175.614
3668.730 49.819 113.076
3878.910 49.399 21.174
4101.130 48.702 -96.845
4336.070 47.180 116.985
4584.480 44.644 -55.214
4847.120 41.511 105.180
5124.810 35.111 -120.865
5418.400 30.220 46.370
5728.810 36.426 134.755
6057.010 38.332 156.980
6404.000 40.223 134.052
6770.880 38.375 62.567
7158.770 34.861 -53.335
7568.890 24.300 -171.870
8002.500 26.084 57.105
8460.950 31.722 174.045
8945.670 30.423 -153.687
9458.160 29.693 -162.271
10000.000 21.113 144.390
