# Freq(Hz) SPL(dB) Phase (degrees)
10.000 52.373 107.978
10.570 53.170 104.006
11.180 53.959 99.772
11.820 54.720 95.348
12.500 55.462 90.668
13.210 56.170 85.800
13.970 56.858 80.610
14.770 57.510 75.165
15.620 58.127 69.398
16.510 58.697 63.373
17.460 59.223 56.950
18.460 59.690 50.190
19.510 60.085 43.082
20.630 60.401 35.476
21.810 60.615 27.422
23.060 60.699 18.829
24.380 60.615 9.670
25.780 60.303 -0.151
27.260 59.670 -10.656
28.820 58.563 -21.846
30.470 56.676 -33.741
32.220 53.258 -46.202
34.060 45.246 -57.730
36.010 43.360 100.638
38.080 54.267 88.997
40.260 59.142 74.794
42.560 62.249 60.377
45.000 64.459 46.048
47.580 66.103 32.017
50.310 67.364 18.335
53.190 68.349 5.037
56.230 69.135 -7.935
59.460 69.775 -20.726
62.860 70.300 -33.292
66.460 70.738 -45.781
70.270 71.109 -58.258
74.300 71.424 -70.782
78.550 71.695 -83.379
83.050 71.930 -96.158
87.810 72.135 -109.160
92.840 72.316 -122.426
98.160 72.477 -136.016
103.780 72.621 -149.965
109.730 72.753 -164.352
116.020 72.874 -179.205
122.660 72.988 165.447
129.690 73.098 149.507
137.120 73.206 132.947
144.970 73.314 115.717
153.280 73.427 97.721
162.060 73.545 78.927
171.340 73.672 59.258
181.160 73.810 38.614
191.540 73.961 16.933
202.510 74.127 -5.870
214.110 74.308 -29.904
226.380 74.506 -55.279
239.350 74.718 -82.084
253.060 74.943 -110.428
267.560 75.180 -140.439
282.890 75.424 -172.218
299.090 75.672 154.139
316.230 75.920 118.479
334.340 76.165 80.736
353.500 76.403 40.742
373.750 76.632 -1.591
395.160 76.847 -46.419
417.800 77.043 -93.901
441.730 77.208 -144.169
467.040 77.331 162.607
493.800 77.393 106.361
522.090 77.382 47.087
552.000 77.301 -15.167
583.620 77.179 -80.361
617.050 77.068 -148.632
652.400 77.025 139.580
689.780 77.070 63.589
729.290 77.170 -17.294
771.080 77.246 -103.633
815.250 77.205 164.489
861.950 76.977 67.265
911.330 76.550 -34.877
963.540 75.992 -141.601
1018.740 75.412 106.976
1077.110 74.904 -9.850
1138.810 74.496 -132.915
1204.050 74.171 96.973
1273.030 73.899 -40.806
1345.960 73.645 173.340
1423.070 73.415 19.061
1504.590 73.256 -144.371
1590.790 73.136 41.735
1681.920 72.882 -143.498
1778.280 72.318 20.398
1880.150 71.566 174.627
1987.870 70.938 -42.391
2101.750 70.278 86.386
2222.150 69.239 -158.875
2349.460 67.873 -57.716
2484.060 66.188 28.774
2626.360 64.049 99.582
2776.820 61.257 153.795
2935.900 57.435 -170.635
3104.100 51.289 -159.348
3281.930 41.425 124.451
3469.940 51.166 36.174
3668.730 55.726 -16.543
3878.910 57.851 -85.902
4101.130 58.578 -176.861
4336.070 58.586 69.210
4584.480 58.031 -71.158
4847.120 56.955 119.487
5124.810 54.899 -81.823
5418.400 51.072 42.461
5728.810 43.201 127.735
6057.010 35.918 52.676
6404.000 46.917 50.372
6770.880 50.260 21.784
7158.770 50.589 -41.216
7568.890 48.877 -149.696
8002.500 44.654 55.114
8460.950 32.625 -148.097
8945.670 36.841 143.833
9458.160 43.091 -171.302
10000.000 43.398 177.105
