# Freq(Hz) SPL(dB) Phase (degrees)
10.000 53.038 109.414
10.570 53.836 105.523
11.180 54.625 101.377
11.820 55.387 97.045
12.500 56.129 92.462
13.210 56.837 87.697
13.970 57.526 82.616
14.770 58.178 77.286
15.620 58.797 71.641
16.510 59.367 65.743
17.460 59.894 59.457
18.460 60.361 52.840
19.510 60.758 45.883
20.630 61.075 38.439
21.810 61.290 30.555
23.060 61.376 22.141
24.380 61.293 13.172
25.780 60.983 3.552
27.260 60.352 -6.741
28.820 59.247 -17.706
30.470 57.364 -29.364
32.220 53.948 -41.573
34.060 45.939 -52.837
36.010 44.058 105.812
38.080 54.969 94.468
40.260 59.849 80.579
42.560 62.961 66.492
45.000 65.177 52.513
47.580 66.828 38.853
50.310 68.096 25.563
53.190 69.091 12.678
56.230 69.886 0.142
59.460 70.538 -12.188
62.860 71.075 -24.268
66.460 71.528 -36.245
70.270 71.915 -48.182
74.300 72.249 -60.137
78.550 72.541 -72.138
83.050 72.800 -84.290
87.810 73.032 -96.635
92.840 73.244 -109.213
98.160 73.440 -122.087
103.780 73.623 -135.292
109.730 73.799 -148.908
116.020 73.970 -162.966
122.660 74.139 -177.501
129.690 74.309 167.388
137.120 74.483 151.667
144.970 74.664 135.279
153.280 74.853 118.122
162.060 75.053 100.156
171.340 75.263 81.297
181.160 75.486 61.442
191.540 75.721 40.525
202.510 75.966 18.463
214.110 76.219 -4.847
226.380 76.477 -29.500
239.350 76.736 -55.569
253.060 76.993 -83.134
267.560 77.241 -112.285
282.890 77.476 -143.081
299.090 77.696 -175.564
316.230 77.900 150.173
334.340 78.089 114.126
353.500 78.271 76.189
373.750 78.456 36.322
395.160 78.662 -5.614
417.800 78.905 -49.813
441.730 79.201 -96.518
467.040 79.556 -146.099
493.800 79.957 161.086
522.090 80.377 104.696
552.000 80.772 44.477
583.620 81.093 -19.658
617.050 81.305 -87.658
652.400 81.399 -159.418
689.780 81.389 125.135
729.290 81.308 45.981
771.080 81.189 -37.141
815.250 81.060 -124.505
861.950 80.934 143.438
911.330 80.802 46.227
963.540 80.629 -56.521
1018.740 80.367 -164.926
1077.110 80.004 81.272
1138.810 79.648 -37.635
1204.050 79.468 -162.523
1273.030 79.465 64.949
1345.960 79.499 -76.030
1423.070 79.498 134.537
1504.590 79.472 -23.551
1590.790 79.444 169.230
1681.920 79.424 -7.921
1778.280 79.310 164.162
1880.150 79.025 -34.043
1987.870 78.751 117.273
2101.750 78.499 -103.616
2222.150 78.125 23.021
2349.460 77.734 137.039
2484.060 77.381 -122.825
2626.360 77.021 -37.595
2776.820 76.641 31.976
2935.900 76.251 84.963
3104.100 75.855 120.323
3281.930 75.447 136.704
3469.940 74.929 133.133
3668.730 74.287 108.593
3878.910 73.460 62.464
4101.130 72.513 -5.826
4336.070 71.630 -97.744
4584.480 70.802 143.921
4847.120 69.830 -2.936
5124.810 68.547 -178.799
5418.400 67.074 -24.430
5728.810 65.397 97.574
6057.010 63.343 -174.247
6404.000 60.886 -120.910
6770.880 57.945 -105.899
7158.770 53.723 -129.083
7568.890 47.021 175.139
8002.500 40.543 140.968
8460.950 47.260 25.145
8945.670 50.972 -176.911
9458.160 52.903 -80.506
10000.000 53.682 -41.297
