# Freq(Hz) SPL(dB) Phase (degrees)
10.000 53.110 109.562
10.570 53.908 105.680
11.180 54.696 101.542
11.820 55.458 97.220
12.500 56.201 92.647
13.210 56.909 87.892
13.970 57.597 82.822
14.770 58.250 77.504
15.620 58.869 71.872
16.510 59.439 65.987
17.460 59.966 59.715
18.460 60.434 53.113
19.510 60.830 46.171
20.630 61.148 38.744
21.810 61.363 30.877
23.060 61.449 22.482
24.380 61.366 13.532
25.780 61.056 3.932
27.260 60.426 -6.338
28.820 59.322 -17.281
30.470 57.438 -28.914
32.220 54.023 -41.098
34.060 46.015 -52.334
36.010 44.134 106.343
38.080 55.045 95.029
40.260 59.926 81.172
42.560 63.039 67.119
45.000 65.256 53.176
47.580 66.907 39.554
50.310 68.177 26.304
53.190 69.172 13.460
56.230 69.969 0.968
59.460 70.622 -11.316
62.860 71.161 -23.348
66.460 71.616 -35.273
70.270 72.005 -47.156
74.300 72.341 -59.055
78.550 72.635 -70.997
83.050 72.897 -83.087
87.810 73.133 -95.368
92.840 73.348 -107.880
98.160 73.548 -120.686
103.780 73.736 -133.820
109.730 73.916 -147.363
116.020 74.093 -161.348
122.660 74.267 -175.808
129.690 74.444 169.157
137.120 74.625 153.512
144.970 74.812 137.198
153.280 75.009 120.116
162.060 75.215 102.223
171.340 75.433 83.437
181.160 75.663 63.653
191.540 75.903 42.808
202.510 76.153 20.818
214.110 76.411 -2.416
226.380 76.672 -26.990
239.350 76.933 -52.970
253.060 77.189 -80.434
267.560 77.435 -109.469
282.890 77.669 -140.126
299.090 77.885 -172.444
316.230 78.086 153.490
334.340 78.274 117.678
353.500 78.459 80.014
373.750 78.653 40.454
395.160 78.877 -1.154
417.800 79.149 -45.028
441.730 79.484 -91.447
467.040 79.884 -140.814
493.800 80.333 166.489
522.090 80.793 110.122
552.000 81.212 49.868
583.620 81.537 -14.301
617.050 81.735 -82.262
652.400 81.803 -153.843
689.780 81.767 131.070
729.290 81.675 52.448
771.080 81.577 -30.049
815.250 81.504 -116.851
861.950 81.454 151.441
911.330 81.389 54.324
963.540 81.247 -48.457
1018.740 80.976 -156.794
1077.110 80.587 89.750
1138.810 80.232 -28.579
1204.050 80.085 -152.944
1273.030 80.108 74.945
1345.960 80.160 -65.501
1423.070 80.207 145.649
1504.590 80.241 -12.139
1590.790 80.208 -179.272
1681.920 80.111 4.144
1778.280 79.973 177.480
1880.150 79.761 -19.691
1987.870 79.492 132.174
2101.750 79.166 -87.333
2222.150 78.847 41.367
2349.460 78.589 157.126
2484.060 78.393 -101.041
2626.360 78.230 -14.183
2776.820 78.083 56.840
2935.900 77.930 111.042
3104.100 77.751 147.486
3281.930 77.510 165.186
3469.940 77.181 163.389
3668.730 76.740 141.366
3878.910 76.315 98.595
4101.130 76.020 32.945
4336.070 75.815 -57.785
4584.480 75.549 -175.296
4847.120 75.108 39.759
5124.810 74.582 -133.395
5418.400 74.059 23.219
5728.810 73.500 147.523
6057.010 72.877 -122.168
6404.000 72.201 -67.853
6770.880 71.432 -51.488
7158.770 70.622 -74.745
7568.890 69.803 -140.975
8002.500 68.849 107.836
8460.950 67.783 -50.670
8945.670 66.654 101.422
9458.160 65.488 -161.099
10000.000 63.929 -119.385
