# Freq(Hz) SPL(dB) Phase (degrees)
10.000 50.477 103.204
10.570 51.275 98.960
11.180 52.064 94.434
11.820 52.826 89.705
12.500 53.569 84.699
13.210 54.277 79.492
13.970 54.965 73.939
14.770 55.617 68.112
15.620 56.236 61.938
16.510 56.807 55.486
17.460 57.334 48.609
18.460 57.801 41.370
19.510 58.197 33.759
20.630 58.515 25.617
21.810 58.729 16.997
23.060 58.815 7.804
24.380 58.733 -1.988
25.780 58.422 -12.482
27.260 57.792 -23.699
28.820 56.687 -35.639
30.470 54.803 -48.329
32.220 51.387 -61.633
34.060 43.378 -74.049
36.010 41.496 83.377
38.080 52.407 70.734
40.260 57.286 55.475
42.560 60.398 39.941
45.000 62.612 24.425
47.580 64.262 9.137
50.310 65.528 -5.879
53.190 66.520 -20.588
56.230 67.313 -35.052
59.460 67.961 -49.435
62.860 68.494 -63.681
66.460 68.941 -77.956
70.270 69.320 -92.330
74.300 69.645 -106.869
78.550 69.925 -121.601
83.050 70.170 -136.651
87.810 70.385 -152.067
92.840 70.575 -167.898
98.160 70.745 175.785
103.780 70.897 158.939
109.730 71.034 141.467
116.020 71.159 123.335
122.660 71.273 104.507
129.690 71.378 84.864
137.120 71.476 64.374
144.970 71.567 42.977
153.280 71.654 20.559
162.060 71.737 -2.911
171.340 71.816 -27.519
181.160 71.893 -53.375
191.540 71.967 -80.539
202.510 72.040 -109.093
214.110 72.111 -139.149
226.380 72.180 -170.815
239.350 72.246 155.826
253.060 72.310 120.667
267.560 72.370 83.577
282.890 72.425 44.451
299.090 72.476 3.186
316.230 72.521 -40.397
334.340 72.561 -86.376
353.500 72.596 -134.959
373.750 72.626 173.742
395.160 72.651 119.530
417.800 72.670 62.200
441.730 72.681 1.560
467.040 72.678 -62.664
493.800 72.649 -130.694
522.090 72.579 157.250
552.000 72.447 80.974
583.620 72.236 0.355
617.050 71.940 -84.708
652.400 71.565 -174.350
689.780 71.128 91.211
729.290 70.647 -8.321
771.080 70.126 -113.457
815.250 69.553 135.397
861.950 68.903 17.749
911.330 68.142 -106.831
963.540 67.236 121.246
1018.740 66.126 -18.503
1077.110 64.724 -166.446
1138.810 62.926 37.494
1204.050 60.699 -126.362
1273.030 58.054 61.775
1345.960 54.948 -118.656
1423.070 51.146 50.413
1504.590 45.957 -154.175
1590.790 36.906 -31.431
1681.920 38.369 -1.281
1778.280 45.113 101.545
1880.150 48.080 -156.020
1987.870 49.415 -64.556
2101.750 49.710 12.998
2222.150 49.234 76.060
2349.460 47.888 122.257
2484.060 45.507 152.575
2626.360 41.657 168.576
2776.820 36.014 179.233
2935.900 31.998 -157.392
3104.100 33.866 -167.107
3281.930 35.048 133.944
3469.940 33.242 46.314
3668.730 28.737 -48.054
3878.910 28.823 -131.493
4101.130 33.375 69.710
4336.070 35.039 -129.744
4584.480 34.909 -6.748
4847.120 32.947 87.659
5124.810 28.491 154.796
5418.400 24.792 -136.329
5728.810 28.137 -118.329
6057.010 30.919 -170.673
6404.000 32.208 78.068
6770.880 30.711 -84.652
7158.770 26.023 63.143
7568.890 17.404 173.133
8002.500 13.977 -47.675
8460.950 17.637 11.063
8945.670 23.827 14.616
9458.160 19.298 -149.012
10000.000 13.411 -67.901
