# Freq(Hz) SPL(dB) Phase (degrees)
10.000 52.923 109.173
10.570 53.720 105.268
11.180 54.509 101.107
11.820 55.271 96.760
12.500 56.013 92.161
13.210 56.721 87.378
13.970 57.410 82.279
14.770 58.062 76.930
15.620 58.680 71.264
16.510 59.251 65.345
17.460 59.778 59.036
18.460 60.245 52.395
19.510 60.641 45.413
20.630 60.958 37.941
21.810 61.172 30.029
23.060 61.258 21.585
24.380 61.175 12.584
25.780 60.864 2.930
27.260 60.233 -7.398
28.820 59.128 -18.401
30.470 57.244 -30.099
32.220 53.828 -42.350
34.060 45.818 -53.658
36.010 43.936 104.945
38.080 54.846 93.551
40.260 59.725 79.609
42.560 62.836 65.468
45.000 65.051 51.431
47.580 66.700 37.709
50.310 67.967 24.354
53.190 68.960 11.400
56.230 69.753 -1.208
59.460 70.403 -13.614
62.860 70.938 -25.775
66.460 71.388 -37.836
70.270 71.771 -49.861
74.300 72.102 -61.909
78.550 72.390 -74.006
83.050 72.644 -86.260
87.810 72.871 -98.711
92.840 73.077 -111.399
98.160 73.267 -124.387
103.780 73.443 -137.710
109.730 73.611 -151.446
116.020 73.773 -165.628
122.660 73.932 179.711
129.690 74.092 164.474
137.120 74.256 148.626
144.970 74.425 132.111
153.280 74.602 114.829
162.060 74.789 96.739
171.340 74.988 77.760
181.160 75.199 57.786
191.540 75.423 36.752
202.510 75.658 14.572
214.110 75.903 -8.858
226.380 76.156 -33.638
239.350 76.412 -59.844
253.060 76.667 -87.563
267.560 76.917 -116.892
282.890 77.157 -147.898
299.090 77.383 179.368
316.230 77.593 144.802
334.340 77.787 108.393
353.500 77.969 70.029
373.750 78.147 29.670
395.160 78.332 -12.809
417.800 78.538 -57.570
441.730 78.779 -104.808
467.040 79.061 -154.831
493.800 79.382 152.061
522.090 79.726 95.547
552.000 80.065 35.347
583.620 80.360 -28.712
617.050 80.581 -96.699
652.400 80.712 -168.630
689.780 80.749 115.478
729.290 80.701 35.581
771.080 80.578 -48.507
815.250 80.390 -136.870
861.950 80.158 130.295
911.330 79.910 32.695
963.540 79.662 -70.129
1018.740 79.390 -178.615
1077.110 79.057 67.144
1138.810 78.712 -52.611
1204.050 78.491 -178.385
1273.030 78.447 48.389
1345.960 78.465 -93.402
1423.070 78.427 116.087
1504.590 78.312 -42.975
1590.790 78.211 149.277
1681.920 78.221 -28.421
1778.280 78.188 142.257
1880.150 77.883 -58.068
1987.870 77.490 91.566
2101.750 77.205 -130.846
2222.150 76.800 -6.721
2349.460 76.239 104.423
2484.060 75.626 -158.138
2626.360 74.950 -75.441
2776.820 74.207 -8.247
2935.900 73.420 42.488
3104.100 72.587 75.561
3281.930 71.688 89.928
3469.940 70.747 83.907
3668.730 69.514 55.985
3878.910 67.905 5.704
4101.130 65.723 -67.007
4336.070 63.094 -161.490
4584.480 60.226 80.209
4847.120 56.743 -65.857
5124.810 51.145 121.551
5418.400 39.600 -31.794
5728.810 48.468 169.306
6057.010 53.231 -99.564
6404.000 55.395 -49.820
6770.880 56.592 -40.188
7158.770 56.739 -71.586
7568.890 56.302 -146.939
8002.500 55.128 92.716
8460.950 53.195 -76.063
8945.670 49.755 62.923
9458.160 43.587 148.805
10000.000 25.322 -119.268
