# Freq(Hz) SPL(dB) Phase (degrees)
10.000 51.682 106.362
10.570 52.479 102.297
11.180 53.268 97.965
11.820 54.029 93.437
12.500 54.771 88.647
13.210 55.479 83.664
13.970 56.166 78.351
14.770 56.818 72.777
15.620 57.436 66.872
16.510 58.005 60.702
17.460 58.531 54.126
18.460 58.997 47.203
19.510 59.392 39.925
20.630 59.708 32.138
21.810 59.921 23.892
23.060 60.005 15.096
24.380 59.921 5.723
25.780 59.608 -4.327
27.260 58.974 -15.073
28.820 57.867 -26.517
30.470 55.979 -38.681
32.220 52.560 -51.428
34.060 44.547 -63.256
36.010 42.661 94.793
38.080 53.566 82.812
40.260 58.440 68.252
42.560 61.546 53.456
45.000 63.754 38.725
47.580 65.395 24.269
50.310 66.653 10.135
53.190 67.636 -3.641
56.230 68.418 -17.117
59.460 69.055 -30.447
62.860 69.575 -43.581
66.460 70.008 -56.674
70.270 70.372 -69.791
74.300 70.680 -82.995
78.550 70.942 -96.311
83.050 71.167 -109.854
87.810 71.360 -123.667
92.840 71.527 -137.791
98.160 71.671 -152.291
103.780 71.796 -167.202
109.730 71.904 177.391
116.020 71.997 161.461
122.660 72.079 144.979
129.690 72.150 127.844
137.120 72.213 110.032
144.970 72.269 91.492
153.280 72.321 72.132
162.060 72.369 51.925
171.340 72.417 30.802
181.160 72.466 8.668
191.540 72.518 -14.526
202.510 72.575 -38.856
214.110 72.640 -64.420
226.380 72.715 -91.320
239.350 72.802 -119.639
253.060 72.903 -149.490
267.560 73.018 178.992
282.890 73.149 145.686
299.090 73.293 110.467
316.230 73.449 73.142
334.340 73.612 33.603
353.500 73.775 -8.362
373.750 73.928 -52.872
395.160 74.059 -100.093
417.800 74.150 -150.162
441.730 74.187 156.846
467.040 74.153 100.843
493.800 74.042 41.831
522.090 73.855 -20.184
552.000 73.608 -85.241
583.620 73.321 -153.439
617.050 73.019 135.032
652.400 72.721 59.929
689.780 72.450 -19.004
729.290 72.234 -102.079
771.080 72.095 170.110
815.250 72.015 76.993
861.950 71.935 -21.901
911.330 71.799 -126.634
963.540 71.615 122.984
1018.740 71.484 6.840
1077.110 71.505 -116.122
1138.810 71.633 112.617
1204.050 71.676 -27.837
1273.030 71.481 -177.335
1345.960 70.968 24.676
1423.070 70.161 -141.154
1504.590 69.192 45.650
1590.790 68.334 -135.375
1681.920 67.778 33.020
1778.280 67.182 -171.779
1880.150 66.277 -28.490
1987.870 65.299 102.854
2101.750 64.193 -140.448
2222.150 62.454 -39.126
2349.460 59.849 50.139
2484.060 56.970 128.245
2626.360 53.619 -170.648
2776.820 47.824 -125.191
2935.900 35.143 -44.390
3104.100 42.891 31.584
3281.930 50.073 40.417
3469.940 53.208 4.916
3668.730 54.620 -60.324
3878.910 54.382 -146.809
4101.130 53.572 105.103
4336.070 52.966 -28.439
4584.480 51.288 161.723
4847.120 47.350 -34.941
5124.810 40.811 103.714
5418.400 24.391 -61.895
5728.810 40.024 68.299
6057.010 44.533 96.811
6404.000 45.279 81.336
6770.880 44.485 27.375
7158.770 41.693 -73.189
7568.890 32.258 142.366
8002.500 27.870 99.616
8460.950 37.504 -136.931
8945.670 39.389 -84.105
9458.160 36.750 -85.170
10000.000 27.867 -147.954
