# Freq(Hz) SPL(dB) Phase (degrees)
10.000 53.134 109.611
10.570 53.932 105.732
11.180 54.721 101.598
11.820 55.483 97.279
12.500 56.225 92.709
13.210 56.934 87.958
13.970 57.622 82.892
14.770 58.274 77.578
15.620 58.893 71.949
16.510 59.464 66.070
17.460 59.991 59.802
18.460 60.458 53.205
19.510 60.855 46.269
20.630 61.173 38.846
21.810 61.388 30.985
23.060 61.474 22.597
24.380 61.391 13.653
25.780 61.081 4.061
27.260 60.451 -6.203
28.820 59.347 -17.138
30.470 57.463 -28.763
32.220 54.049 -40.938
34.060 46.040 -52.165
36.010 44.160 106.522
38.080 55.071 95.219
40.260 59.952 81.372
42.560 63.065 67.331
45.000 65.282 53.400
47.580 66.934 39.790
50.310 68.204 26.553
53.190 69.200 13.723
56.230 69.997 1.246
59.460 70.651 -11.022
62.860 71.190 -23.038
66.460 71.646 -34.946
70.270 72.035 -46.811
74.300 72.372 -58.691
78.550 72.667 -70.613
83.050 72.930 -82.683
87.810 73.167 -94.943
92.840 73.384 -107.433
98.160 73.585 -120.215
103.780 73.774 -133.326
109.730 73.956 -146.845
116.020 74.134 -160.805
122.660 74.311 -175.240
129.690 74.490 169.750
137.120 74.673 154.130
144.970 74.862 137.841
153.280 75.061 120.783
162.060 75.270 102.915
171.340 75.490 84.153
181.160 75.722 64.394
191.540 75.965 43.572
202.510 76.216 21.607
214.110 76.475 -1.602
226.380 76.737 -26.148
239.350 76.998 -52.097
253.060 77.254 -79.527
267.560 77.501 -108.521
282.890 77.733 -139.130
299.090 77.949 -171.390
316.230 78.149 154.613
334.340 78.337 118.881
353.500 78.523 81.311
373.750 78.721 41.854
395.160 78.952 0.355
417.800 79.234 -43.414
441.730 79.583 -89.744
467.040 79.999 -139.049
493.800 80.463 168.284
522.090 80.935 111.919
552.000 81.360 51.651
583.620 81.685 -12.525
617.050 81.878 -80.463
652.400 81.936 -151.971
689.780 81.892 133.078
729.290 81.799 54.647
771.080 81.711 -27.639
815.250 81.660 -114.265
861.950 81.638 154.119
911.330 81.593 57.010
963.540 81.458 -45.789
1018.740 81.181 -154.096
1077.110 80.784 92.582
1138.810 80.431 -25.545
1204.050 80.296 -149.738
1273.030 80.329 78.288
1345.960 80.389 -61.979
1423.070 80.455 149.338
1504.590 80.507 -8.403
1590.790 80.463 -175.519
1681.920 80.334 8.152
1778.280 80.198 -178.054
1880.150 80.015 -14.979
1987.870 79.727 137.017
2101.750 79.363 -81.880
2222.150 79.076 47.570
2349.460 78.862 163.892
2484.060 78.717 -93.664
2626.360 78.624 -6.225
2776.820 78.561 65.270
2935.900 78.486 119.826
3104.100 78.364 156.593
3281.930 78.171 174.820
3469.940 77.889 173.577
3668.730 77.494 152.605
3878.910 77.221 111.069
4101.130 77.139 46.196
4336.070 77.136 -44.220
4584.480 76.991 -161.428
4847.120 76.686 54.489
5124.810 76.362 -117.724
5418.400 76.061 39.696
5728.810 75.725 164.976
6057.010 75.400 -103.485
6404.000 75.087 -48.050
6770.880 74.735 -30.707
7158.770 74.376 -53.513
7568.890 73.972 -118.899
8002.500 73.546 131.205
8460.950 73.136 -26.233
8945.670 72.695 125.792
9458.160 72.167 -135.100
10000.000 71.678 -91.440
