# Freq(Hz) SPL(dB) Phase (degrees)
10.000 52.992 109.317
10.570 53.789 105.420
11.180 54.578 101.268
11.820 55.340 96.930
12.500 56.083 92.341
13.210 56.791 87.568
13.970 57.479 82.480
14.770 58.131 77.143
15.620 58.750 71.489
16.510 59.321 65.583
17.460 59.847 59.287
18.460 60.315 52.661
19.510 60.711 45.693
20.630 61.029 38.238
21.810 61.243 30.342
23.060 61.329 21.917
24.380 61.246 12.935
25.780 60.936 3.301
27.260 60.305 -7.006
28.820 59.200 -17.987
30.470 57.317 -29.661
32.220 53.901 -41.887
34.060 45.892 -53.169
36.010 44.011 105.462
38.080 54.921 94.097
40.260 59.802 80.187
42.560 62.914 66.078
45.000 65.130 52.075
47.580 66.780 38.390
50.310 68.048 25.073
53.190 69.042 12.159
56.230 69.838 -0.406
59.460 70.489 -12.767
62.860 71.026 -24.881
66.460 71.479 -36.893
70.270 71.865 -48.866
74.300 72.199 -60.861
78.550 72.490 -72.902
83.050 72.748 -85.097
87.810 72.980 -97.487
92.840 73.191 -110.114
98.160 73.386 -123.038
103.780 73.568 -136.295
109.730 73.743 -149.965
116.020 73.912 -164.080
122.660 74.080 -178.674
129.690 74.248 166.154
137.120 74.421 150.371
144.970 74.600 133.918
153.280 74.787 116.694
162.060 74.985 98.660
171.340 75.195 79.732
181.160 75.416 59.806
191.540 75.650 38.815
202.510 75.894 16.676
214.110 76.147 -6.713
226.380 76.406 -31.452
239.350 76.667 -57.612
253.060 76.926 -85.277
267.560 77.177 -114.537
282.890 77.416 -145.454
299.090 77.640 -178.072
316.230 77.846 147.516
334.340 78.038 111.308
353.500 78.220 73.202
373.750 78.405 33.167
395.160 78.607 -8.924
417.800 78.848 -53.249
441.730 79.146 -100.048
467.040 79.512 -149.698
493.800 79.938 157.409
522.090 80.398 100.879
552.000 80.841 40.413
583.620 81.215 -24.103
617.050 81.475 -92.618
652.400 81.603 -164.995
689.780 81.612 118.895
729.290 81.538 39.098
771.080 81.428 -44.633
815.250 81.318 -132.662
861.950 81.210 134.437
911.330 81.063 36.242
963.540 80.840 -67.355
1018.740 80.542 -176.292
1077.110 80.222 69.255
1138.810 79.914 -51.180
1204.050 79.615 -178.092
1273.030 79.343 48.311
1345.960 79.170 -92.576
1423.070 79.100 118.239
1504.590 79.083 -40.016
1590.790 79.056 151.884
1681.920 78.892 -26.258
1778.280 78.605 146.261
1880.150 78.415 -51.244
1987.870 78.262 99.277
2101.750 78.016 -122.135
2222.150 77.786 4.189
2349.460 77.588 116.854
2484.060 77.346 -145.061
2626.360 77.001 -62.024
2776.820 76.567 5.552
2935.900 76.106 56.968
3104.100 75.692 90.903
3281.930 75.317 105.557
3469.940 74.819 99.827
3668.730 74.125 72.931
3878.910 73.227 24.838
4101.130 72.306 -45.444
4336.070 71.441 -140.391
4584.480 70.453 97.902
4847.120 69.244 -51.404
5124.810 67.840 130.943
5418.400 66.301 -77.469
5728.810 64.455 41.566
6057.010 62.216 126.279
6404.000 59.205 174.744
6770.880 55.136 -168.217
7158.770 50.773 172.806
7568.890 42.492 130.579
8002.500 45.149 99.480
8460.950 50.039 -52.255
8945.670 52.107 97.130
9458.160 53.344 -171.069
10000.000 53.896 -137.914
