# Freq(Hz) SPL(dB) Phase (degrees)
10.000 50.568 103.458
10.570 51.366 99.228
11.180 52.154 94.718
11.820 52.916 90.005
12.500 53.659 85.017
13.210 54.367 79.828
13.970 55.055 74.294
14.770 55.707 68.487
15.620 56.326 62.334
16.510 56.896 55.906
17.460 57.423 49.052
18.460 57.890 41.839
19.510 58.286 34.255
20.630 58.603 26.141
21.810 58.818 17.552
23.060 58.903 8.391
24.380 58.820 -1.368
25.780 58.509 -11.826
27.260 57.878 -23.005
28.820 56.773 -34.906
30.470 54.888 -47.553
32.220 51.472 -60.813
34.060 43.462 -73.182
36.010 41.580 84.295
38.080 52.489 71.704
40.260 57.367 56.502
42.560 60.478 41.027
45.000 62.691 25.574
47.580 64.339 10.353
50.310 65.604 -4.592
53.190 66.594 -19.227
56.230 67.385 -33.612
59.460 68.030 -47.911
62.860 68.560 -62.068
66.460 69.004 -76.248
70.270 69.380 -90.521
74.300 69.702 -104.954
78.550 69.978 -119.573
83.050 70.218 -134.502
87.810 70.429 -149.791
92.840 70.613 -165.485
98.160 70.777 178.343
103.780 70.922 161.651
109.730 71.051 144.345
116.020 71.167 126.389
122.660 71.272 107.749
129.690 71.366 88.307
137.120 71.452 68.033
144.970 71.530 46.867
153.280 71.602 24.698
162.060 71.668 1.496
171.340 71.729 -22.822
181.160 71.786 -48.366
191.540 71.838 -75.191
202.510 71.885 -103.378
214.110 71.928 -133.034
226.380 71.966 -164.262
239.350 71.998 162.858
253.060 72.024 128.225
267.560 72.043 91.714
282.890 72.054 53.229
299.090 72.056 12.673
316.230 72.049 -30.123
334.340 72.033 -75.227
353.500 72.009 -122.835
373.750 71.977 -173.051
395.160 71.938 133.942
417.800 71.891 77.948
441.730 71.834 18.788
467.040 71.760 -43.798
493.800 71.656 -109.999
522.090 71.505 -179.990
552.000 71.288 106.102
583.620 70.994 28.230
617.050 70.625 -53.636
652.400 70.200 -139.571
689.780 69.748 130.277
729.290 69.302 35.707
771.080 68.896 -63.658
815.250 68.569 -168.131
861.950 68.362 81.745
911.330 68.317 -34.772
963.540 68.444 -158.663
1018.740 68.691 69.013
1077.110 68.938 -72.645
1138.810 69.026 136.064
1204.050 68.875 -24.294
1273.030 68.491 166.327
1345.960 67.939 -12.218
1423.070 67.240 159.558
1504.590 66.380 -39.033
1590.790 65.342 111.660
1681.920 64.104 -108.423
1778.280 62.770 20.391
1880.150 61.419 137.219
1987.870 60.081 -119.377
2101.750 58.706 -30.216
2222.150 57.234 42.818
2349.460 55.611 98.937
2484.060 53.391 136.515
2626.360 50.004 157.846
2776.820 45.068 171.629
2935.900 41.694 -162.330
3104.100 44.103 -171.452
3281.930 46.350 135.244
3469.940 47.601 53.970
3668.730 48.755 -56.684
3878.910 49.460 158.223
4101.130 49.074 -19.652
4336.070 47.254 130.144
4584.480 43.777 -111.756
4847.120 38.402 -14.736
5124.810 31.808 66.601
5418.400 27.484 153.397
5728.810 32.523 163.379
6057.010 33.915 100.082
6404.000 31.934 -6.952
6770.880 28.246 -132.967
7158.770 25.219 4.336
7568.890 16.416 160.217
8002.500 16.706 -66.789
8460.950 24.340 -24.074
8945.670 21.589 -86.557
9458.160 22.862 148.452
10000.000 9.833 -59.808
