# Freq(Hz) SPL(dB) Phase (degrees)
10.000 50.958 104.520
10.570 51.756 100.350
11.180 52.544 95.905
11.820 53.306 91.260
12.500 54.048 86.344
13.210 54.756 81.231
13.970 55.443 75.777
14.770 56.095 70.056
15.620 56.713 63.994
16.510 57.283 57.660
17.460 57.810 50.907
18.460 58.276 43.800
19.510 58.672 36.328
20.630 58.988 28.333
21.810 59.201 19.870
23.060 59.286 10.842
24.380 59.202 1.224
25.780 58.890 -9.085
27.260 58.257 -20.106
28.820 57.150 -31.839
30.470 55.264 -44.310
32.220 51.846 -57.383
34.060 43.834 -69.554
36.010 41.949 88.131
38.080 52.856 75.763
40.260 57.731 60.795
42.560 60.839 45.568
45.000 63.048 30.378
47.580 64.692 15.435
50.310 65.952 0.786
53.190 66.937 -13.536
56.230 67.722 -27.590
59.460 68.362 -41.536
62.860 68.885 -55.321
66.460 69.321 -69.106
70.270 69.689 -82.959
74.300 70.000 -96.946
78.550 70.266 -111.091
83.050 70.494 -125.517
87.810 70.691 -140.270
92.840 70.862 -155.395
98.160 71.009 -170.961
103.780 71.136 172.994
109.730 71.245 156.377
116.020 71.340 139.157
122.660 71.420 121.302
129.690 71.488 102.701
137.120 71.544 83.327
144.970 71.590 63.125
153.280 71.627 41.991
162.060 71.655 19.901
171.340 71.675 -3.222
181.160 71.686 -27.476
191.540 71.690 -52.908
202.510 71.686 -79.590
214.110 71.674 -107.615
226.380 71.655 -137.074
239.350 71.629 -168.033
253.060 71.597 159.421
267.560 71.558 125.181
282.890 71.516 89.163
299.090 71.473 51.281
316.230 71.431 11.376
334.340 71.397 -30.624
353.500 71.374 -74.926
373.750 71.369 -121.658
395.160 71.383 -171.039
417.800 71.416 136.696
441.730 71.460 81.337
467.040 71.504 22.627
493.800 71.530 -39.596
522.090 71.527 -105.464
552.000 71.488 -175.101
583.620 71.417 111.349
617.050 71.320 33.657
652.400 71.196 -48.492
689.780 71.031 -135.403
729.290 70.799 132.724
771.080 70.477 35.677
815.250 70.046 -66.532
861.950 69.501 -173.876
911.330 68.875 73.843
963.540 68.288 -43.215
1018.740 67.952 -165.683
1077.110 68.011 64.277
1138.810 68.299 -75.678
1204.050 68.510 133.333
1273.030 68.432 -27.839
1345.960 68.013 161.168
1423.070 67.219 -19.473
1504.590 66.000 150.419
1590.790 64.305 -48.028
1681.920 62.441 107.417
1778.280 61.242 -105.021
1880.150 60.826 27.088
1987.870 60.316 139.908
2101.750 59.009 -125.223
2222.150 56.366 -45.010
2349.460 52.611 27.248
2484.060 49.217 91.522
2626.360 45.828 136.305
2776.820 40.099 167.947
2935.900 34.009 -131.183
3104.100 36.732 -91.918
3281.930 43.337 -127.715
3469.940 44.810 162.657
3668.730 44.176 76.554
3878.910 45.116 -32.987
4101.130 44.344 172.977
4336.070 40.425 1.466
4584.480 38.397 171.335
4847.120 33.369 -69.065
5124.810 25.037 47.286
5418.400 17.670 -154.246
5728.810 24.863 -82.332
6057.010 27.955 -96.936
6404.000 27.224 -152.677
6770.880 25.517 95.141
7158.770 21.531 -46.951
7568.890 17.470 164.071
8002.500 15.211 -3.370
8460.950 23.332 78.928
8945.670 25.049 87.181
9458.160 22.374 20.941
10000.000 15.719 -78.417
