# Freq(Hz) SPL(dB) Phase (degrees)
10.000 51.891 106.865
10.570 52.688 102.829
11.180 53.477 98.527
11.820 54.238 94.032
12.500 54.980 89.275
13.210 55.688 84.329
13.970 56.375 79.054
14.770 57.027 73.520
15.620 57.645 67.658
16.510 58.214 61.533
17.460 58.740 55.004
18.460 59.206 48.132
19.510 59.602 40.906
20.630 59.918 33.176
21.810 60.131 24.990
23.060 60.215 16.257
24.380 60.130 6.950
25.780 59.817 -3.029
27.260 59.184 -13.701
28.820 58.076 -25.066
30.470 56.189 -37.146
32.220 52.770 -49.805
34.060 44.757 -61.540
36.010 42.871 96.608
38.080 53.776 84.731
40.260 58.651 70.282
42.560 61.756 55.603
45.000 63.965 40.996
47.580 65.607 26.670
50.310 66.865 12.676
53.190 67.848 -0.954
56.230 68.631 -14.276
59.460 69.268 -27.441
62.860 69.789 -40.401
66.460 70.223 -53.310
70.270 70.588 -66.233
74.300 70.897 -79.231
78.550 71.161 -92.330
83.050 71.387 -105.642
87.810 71.583 -119.211
92.840 71.752 -133.078
98.160 71.899 -147.307
103.780 72.027 -161.932
109.730 72.139 -177.037
116.020 72.237 167.350
122.660 72.324 151.201
129.690 72.402 134.415
137.120 72.473 116.966
144.970 72.538 98.805
153.280 72.599 79.837
162.060 72.659 60.036
171.340 72.719 39.328
181.160 72.781 17.619
191.540 72.847 -5.146
202.510 72.918 -29.042
214.110 72.996 -54.170
226.380 73.082 -80.635
239.350 73.176 -108.519
253.060 73.280 -137.932
267.560 73.392 -169.007
282.890 73.511 158.145
299.090 73.633 123.408
316.230 73.756 86.605
334.340 73.871 47.647
353.500 73.972 6.345
373.750 74.046 -37.391
395.160 74.080 -83.689
417.800 74.058 -132.638
441.730 73.967 175.747
467.040 73.797 121.458
493.800 73.553 64.581
522.090 73.260 5.192
552.000 72.967 -56.746
583.620 72.740 -121.482
617.050 72.631 170.435
652.400 72.653 98.250
689.780 72.765 21.270
729.290 72.896 -60.895
771.080 72.983 -148.447
815.250 72.993 118.661
861.950 72.914 20.378
911.330 72.757 -83.360
963.540 72.558 167.268
1018.740 72.363 51.699
1077.110 72.148 -71.009
1138.810 71.773 158.637
1204.050 71.119 21.000
1273.030 70.190 -122.725
1345.960 69.253 88.197
1423.070 68.702 -67.940
1504.590 68.503 124.876
1590.790 68.129 -54.875
1681.920 67.264 114.776
1778.280 66.073 -83.692
1880.150 65.208 69.016
1987.870 64.676 -152.991
2101.750 63.819 -30.578
2222.150 62.532 76.683
2349.460 60.463 167.891
2484.060 57.150 -114.935
2626.360 52.505 -48.010
2776.820 46.357 6.446
2935.900 25.679 70.090
3104.100 42.162 -156.216
3281.930 49.869 -144.435
3469.940 52.680 -174.546
3668.730 53.554 129.026
3878.910 52.953 58.577
4101.130 53.245 -37.042
4336.070 52.445 -165.201
4584.480 50.048 41.497
4847.120 47.064 -139.600
5124.810 40.666 6.572
5418.400 16.373 -143.235
5728.810 38.748 8.925
6057.010 43.594 56.961
6404.000 44.507 58.842
6770.880 44.282 22.292
7158.770 40.594 -61.150
7568.890 33.818 173.958
8002.500 27.194 169.943
8460.950 35.965 -55.215
8945.670 38.226 31.609
9458.160 36.241 52.221
10000.000 26.374 13.649
