# Freq(Hz) SPL(dB) Phase (degrees)
10.000 50.457 103.148
10.570 51.255 98.900
11.180 52.044 94.371
11.820 52.806 89.638
12.500 53.549 84.629
13.210 54.257 79.418
13.970 54.945 73.860
14.770 55.598 68.029
15.620 56.216 61.850
16.510 56.787 55.394
17.460 57.314 48.511
18.460 57.781 41.266
19.510 58.178 33.649
20.630 58.495 25.500
21.810 58.710 16.874
23.060 58.796 7.675
24.380 58.713 -2.125
25.780 58.403 -12.627
27.260 57.772 -23.852
28.820 56.668 -35.801
30.470 54.784 -48.500
32.220 51.368 -61.814
34.060 43.359 -74.241
36.010 41.478 83.175
38.080 52.388 70.520
40.260 57.268 55.248
42.560 60.380 39.702
45.000 62.595 24.172
47.580 64.245 8.869
50.310 65.511 -6.161
53.190 66.504 -20.887
56.230 67.297 -35.368
59.460 67.945 -49.769
62.860 68.478 -64.034
66.460 68.926 -78.329
70.270 69.306 -92.724
74.300 69.631 -107.286
78.550 69.912 -122.042
83.050 70.158 -137.116
87.810 70.374 -152.560
92.840 70.566 -168.418
98.160 70.736 175.235
103.780 70.890 158.358
109.730 71.028 140.854
116.020 71.155 122.687
122.660 71.271 103.823
129.690 71.378 84.141
137.120 71.478 63.611
144.970 71.572 42.171
153.280 71.662 19.709
162.060 71.748 -3.808
171.340 71.831 -28.464
181.160 71.912 -54.372
191.540 71.992 -81.589
202.510 72.070 -110.200
214.110 72.147 -140.314
226.380 72.222 -172.041
239.350 72.296 154.537
253.060 72.369 119.312
267.560 72.439 82.154
282.890 72.505 42.958
299.090 72.569 1.620
316.230 72.629 -42.038
334.340 72.686 -88.095
353.500 72.739 -136.759
373.750 72.791 171.858
395.160 72.841 117.559
417.800 72.889 60.138
441.730 72.933 -0.598
467.040 72.967 -64.925
493.800 72.981 -133.065
522.090 72.959 154.762
552.000 72.881 78.357
583.620 72.732 -2.404
617.050 72.506 -87.628
652.400 72.207 -177.458
689.780 71.854 87.891
729.290 71.460 -11.868
771.080 71.031 -117.219
815.250 70.554 131.470
861.950 70.006 13.761
911.330 69.361 -110.706
963.540 68.597 117.748
1018.740 67.680 -21.263
1077.110 66.558 -168.050
1138.810 65.182 37.446
1204.050 63.568 -124.689
1273.030 61.767 65.263
1345.960 59.798 -113.248
1423.070 57.581 58.925
1504.590 54.990 -138.101
1590.790 51.915 16.803
1681.920 48.335 165.393
1778.280 44.412 -46.203
1880.150 43.113 106.394
1987.870 45.541 -128.137
2101.750 47.969 -36.659
2222.150 49.183 29.881
2349.460 49.005 75.933
2484.060 47.539 106.455
2626.360 44.938 122.833
2776.820 41.168 130.638
2935.900 38.699 143.683
3104.100 41.662 124.761
3281.930 44.417 60.952
3469.940 45.750 -38.194
3668.730 45.679 -168.699
3878.910 44.151 32.531
4101.130 41.044 -152.589
4336.070 35.687 -6.989
4584.480 23.826 123.044
4847.120 23.372 -53.362
5124.810 25.788 14.494
5418.400 22.309 71.987
5728.810 27.795 85.426
6057.010 32.262 14.365
6404.000 31.894 -108.320
6770.880 30.377 80.448
7158.770 25.027 -136.850
7568.890 16.117 22.734
8002.500 14.031 109.970
8460.950 20.209 137.884
8945.670 26.726 55.131
9458.160 25.570 -104.743
10000.000 12.821 -6.497
