# Freq(Hz) SPL(dB) Phase (degrees)
10.000 51.214 105.188
10.570 52.011 101.057
11.180 52.800 96.652
11.820 53.561 92.050
12.500 54.303 87.179
13.210 55.011 82.114
13.970 55.699 76.711
14.770 56.351 71.043
15.620 56.969 65.038
16.510 57.538 58.763
17.460 58.064 52.075
18.460 58.531 45.034
19.510 58.926 37.632
20.630 59.242 29.713
21.810 59.456 21.328
23.060 59.540 12.385
24.380 59.456 2.855
25.780 59.143 -7.360
27.260 58.510 -18.281
28.820 57.403 -29.910
30.470 55.517 -42.270
32.220 52.098 -55.225
34.060 44.086 -67.273
36.010 42.200 90.544
38.080 53.106 78.316
40.260 57.981 63.494
42.560 61.088 48.423
45.000 63.297 33.398
47.580 64.940 18.631
50.310 66.199 4.167
53.190 67.183 -9.959
56.230 67.967 -23.806
59.460 68.605 -37.532
62.860 69.127 -51.084
66.460 69.562 -64.621
70.270 69.928 -78.212
74.300 70.238 -91.920
78.550 70.501 -105.771
83.050 70.728 -119.884
87.810 70.923 -134.304
92.840 71.091 -149.076
98.160 71.235 -164.267
103.780 71.360 -179.914
109.730 71.467 163.893
116.020 71.559 147.123
122.660 71.636 129.746
129.690 71.702 111.654
137.120 71.756 92.820
144.970 71.801 73.193
153.280 71.836 52.672
162.060 71.863 31.231
171.340 71.882 8.799
181.160 71.895 -14.721
191.540 71.901 -39.375
202.510 71.901 -65.231
214.110 71.895 -92.383
226.380 71.885 -120.919
239.350 71.870 -150.905
253.060 71.853 177.572
267.560 71.834 144.402
282.890 71.816 109.497
299.090 71.802 72.763
316.230 71.796 34.031
334.340 71.801 -6.788
353.500 71.821 -49.913
373.750 71.856 -95.491
395.160 71.904 -143.746
417.800 71.955 165.098
441.730 71.997 110.863
467.040 72.008 53.350
493.800 71.971 -7.524
522.090 71.872 -71.803
552.000 71.711 -139.513
583.620 71.500 149.298
617.050 71.261 74.498
652.400 71.018 -4.145
689.780 70.791 -86.910
729.290 70.599 -174.088
771.080 70.461 93.891
815.250 70.398 -3.370
861.950 70.424 -106.504
911.330 70.526 143.751
963.540 70.661 26.662
1018.740 70.756 -98.489
1077.110 70.679 127.659
1138.810 70.231 -14.923
1204.050 69.294 -165.084
1273.030 67.851 38.496
1345.960 66.128 -122.521
1423.070 64.678 72.236
1504.590 64.059 -101.641
1590.790 63.912 69.845
1681.920 63.433 -134.170
1778.280 62.131 8.826
1880.150 59.961 143.812
1987.870 58.103 -85.828
2101.750 57.593 29.077
2222.150 56.827 119.655
2349.460 54.461 -167.787
2484.060 50.624 -105.719
2626.360 46.234 -52.321
2776.820 40.591 -13.979
2935.900 30.305 48.577
3104.100 38.232 131.131
3281.930 43.183 100.458
3469.940 44.350 41.149
3668.730 44.192 -30.775
3878.910 43.849 -139.126
4101.130 39.227 100.493
4336.070 39.344 -30.881
4584.480 36.813 149.208
4847.120 35.324 -62.159
5124.810 26.182 52.876
5418.400 20.471 -124.072
5728.810 26.793 -33.403
6057.010 33.421 -24.994
6404.000 34.002 -52.708
6770.880 34.365 -135.705
7158.770 29.439 89.576
7568.890 24.446 -65.299
8002.500 22.533 176.785
8460.950 28.164 -96.629
8945.670 28.131 -70.061
9458.160 27.739 -102.948
10000.000 20.644 139.996
