# Freq(Hz) SPL(dB) Phase (degrees)
10.000 51.455 105.802
10.570 52.253 101.705
11.180 53.041 97.338
11.820 53.802 92.775
12.500 54.544 87.946
13.210 55.252 82.924
13.970 55.939 77.568
14.770 56.591 71.949
15.620 57.209 65.997
16.510 57.779 59.777
17.460 58.305 53.147
18.460 58.771 46.168
19.510 59.166 38.831
20.630 59.482 30.981
21.810 59.695 22.669
23.060 59.779 13.802
24.380 59.694 4.354
25.780 59.381 -5.774
27.260 58.748 -16.604
28.820 57.640 -28.136
30.470 55.753 -40.393
32.220 52.334 -53.239
34.060 44.321 -65.172
36.010 42.435 92.767
38.080 53.340 80.668
40.260 58.214 65.984
42.560 61.319 51.057
45.000 63.527 36.186
47.580 65.169 21.582
50.310 66.427 7.292
53.190 67.410 -6.651
56.230 68.192 -20.303
59.460 68.828 -33.820
62.860 69.348 -47.152
66.460 69.781 -60.455
70.270 70.144 -73.796
74.300 70.452 -87.238
78.550 70.713 -100.806
83.050 70.936 -114.616
87.810 71.128 -128.714
92.840 71.293 -143.141
98.160 71.435 -157.964
103.780 71.556 -173.217
109.730 71.661 171.012
116.020 71.750 154.695
122.660 71.825 137.802
129.690 71.889 120.230
137.120 71.943 101.955
144.970 71.988 82.927
153.280 72.025 63.049
162.060 72.057 42.299
171.340 72.085 20.607
181.160 72.109 -2.121
191.540 72.133 -25.931
202.510 72.157 -50.892
214.110 72.183 -77.098
226.380 72.214 -104.645
239.350 72.252 -133.606
253.060 72.300 -164.083
267.560 72.360 163.795
282.890 72.435 129.916
299.090 72.525 94.159
316.230 72.634 56.327
334.340 72.758 16.305
353.500 72.896 -26.141
373.750 73.040 -71.154
395.160 73.179 -118.939
417.800 73.298 -169.677
441.730 73.379 136.511
467.040 73.402 79.486
493.800 73.353 19.210
522.090 73.225 -44.341
552.000 73.019 -111.211
583.620 72.745 178.528
617.050 72.413 104.746
652.400 72.032 27.300
689.780 71.618 -53.897
729.290 71.211 -138.904
771.080 70.877 131.912
815.250 70.679 37.924
861.950 70.620 -61.858
911.330 70.634 -168.300
963.540 70.618 78.129
1018.740 70.484 -42.645
1077.110 70.174 -170.455
1138.810 69.707 55.163
1204.050 69.216 -85.945
1273.030 68.810 125.088
1345.960 68.404 -33.177
1423.070 67.835 158.805
1504.590 66.981 -18.590
1590.790 65.862 155.943
1681.920 64.947 -37.116
1778.280 64.583 117.567
1880.150 64.204 -103.998
1987.870 63.233 19.006
2101.750 61.443 128.812
2222.150 58.942 -131.738
2349.460 56.357 -43.515
2484.060 53.322 29.058
2626.360 49.218 88.854
2776.820 43.184 139.342
2935.900 36.712 -127.739
3104.100 46.235 -87.420
3281.930 47.656 -91.715
3469.940 50.211 -135.372
3668.730 50.835 155.542
3878.910 50.729 63.246
4101.130 49.627 -51.480
4336.070 49.213 166.250
4584.480 46.872 -12.719
4847.120 42.474 145.884
5124.810 35.393 -78.508
5418.400 27.172 113.349
5728.810 36.763 -149.763
6057.010 40.432 -131.730
6404.000 41.221 -155.082
6770.880 39.924 141.881
7158.770 36.304 27.599
7568.890 27.746 -135.952
8002.500 26.344 155.829
8460.950 33.396 -90.412
8945.670 33.907 -49.774
9458.160 31.286 -64.322
10000.000 21.867 -141.015
