# Freq(Hz) SPL(dB) Phase (degrees)
10.000 50.669 103.737
10.570 51.466 99.523
11.180 52.255 95.030
11.820 53.017 90.335
12.500 53.759 85.365
13.210 54.467 80.196
13.970 55.155 74.683
14.770 55.807 68.899
15.620 56.426 62.770
16.510 56.996 56.366
17.460 57.522 49.539
18.460 57.989 42.354
19.510 58.385 34.799
20.630 58.702 26.717
21.810 58.916 18.160
23.060 59.001 9.034
24.380 58.918 -0.688
25.780 58.607 -11.107
27.260 57.975 -22.244
28.820 56.869 -34.101
30.470 54.984 -46.702
32.220 51.568 -59.912
34.060 43.557 -72.230
36.010 41.674 85.302
38.080 52.582 72.770
40.260 57.460 57.628
42.560 60.569 42.218
45.000 62.781 26.834
47.580 64.428 11.686
50.310 65.691 -3.182
53.190 66.680 -17.734
56.230 67.469 -32.033
59.460 68.112 -46.239
62.860 68.640 -60.299
66.460 69.082 -74.376
70.270 69.455 -88.540
74.300 69.773 -102.856
78.550 70.046 -117.352
83.050 70.283 -132.150
87.810 70.489 -147.299
92.840 70.669 -162.845
98.160 70.827 -178.860
103.780 70.966 164.616
109.730 71.089 147.489
116.020 71.197 129.723
122.660 71.294 111.286
129.690 71.379 92.062
137.120 71.455 72.020
144.970 71.522 51.103
153.280 71.581 29.200
162.060 71.634 6.284
171.340 71.679 -17.727
181.160 71.719 -42.940
191.540 71.752 -69.408
202.510 71.779 -97.208
214.110 71.800 -126.445
226.380 71.813 -157.219
239.350 71.819 170.397
253.060 71.815 136.306
267.560 71.803 100.389
282.890 71.780 62.555
299.090 71.747 22.716
316.230 71.704 -19.289
334.340 71.651 -63.522
353.500 71.590 -110.172
373.750 71.524 -159.334
395.160 71.453 148.811
417.800 71.380 94.071
441.730 71.302 36.268
467.040 71.213 -24.846
493.800 71.102 -89.446
522.090 70.953 -157.676
552.000 70.758 130.370
583.620 70.518 54.648
617.050 70.254 -24.925
652.400 69.999 -108.553
689.780 69.787 163.424
729.290 69.643 70.584
771.080 69.577 -27.663
815.250 69.585 -131.808
861.950 69.648 117.543
911.330 69.730 -0.170
963.540 69.783 -125.438
1018.740 69.747 101.348
1077.110 69.545 -40.108
1138.810 69.087 170.269
1204.050 68.419 13.090
1273.030 67.581 -151.762
1345.960 66.682 35.330
1423.070 65.776 -146.249
1504.590 64.912 23.090
1590.790 64.258 -177.600
1681.920 63.927 -30.355
1778.280 63.752 101.788
1880.150 63.344 -141.792
1987.870 62.512 -40.767
2101.750 61.162 44.920
2222.150 59.015 115.474
2349.460 56.016 173.230
2484.060 52.464 -139.474
2626.360 48.777 -103.682
2776.820 44.549 -78.070
2935.900 41.837 -46.310
3104.100 45.226 -47.470
3281.930 48.019 -98.155
3469.940 49.018 -178.599
3668.730 49.413 76.146
3878.910 49.738 -58.120
4101.130 49.296 136.499
4336.070 47.894 -61.375
4584.480 45.156 71.256
4847.120 41.054 175.150
5124.810 34.814 -105.190
5418.400 28.225 -12.245
5728.810 33.302 29.929
6057.010 36.260 -18.281
6404.000 36.302 -116.681
6770.880 34.286 111.190
7158.770 32.035 -85.470
7568.890 22.752 43.841
8002.500 19.185 -148.906
8460.950 26.211 -126.811
8945.670 27.967 174.752
9458.160 20.737 19.017
10000.000 17.878 -120.841
