# Freq(Hz) SPL(dB) Phase (degrees)
10.000 52.034 107.201
10.570 52.831 103.184
11.180 53.619 98.902
11.820 54.381 94.429
12.500 55.123 89.695
13.210 55.831 84.773
13.970 56.518 79.523
14.770 57.170 74.016
15.620 57.788 68.183
16.510 58.358 62.088
17.460 58.884 55.591
18.460 59.350 48.753
19.510 59.745 41.563
20.630 60.061 33.870
21.810 60.274 25.724
23.060 60.358 17.033
24.380 60.274 7.771
25.780 59.961 -2.160
27.260 59.328 -12.781
28.820 58.221 -24.093
30.470 56.334 -36.118
32.220 52.915 -48.716
34.060 44.903 -60.389
36.010 43.017 97.826
38.080 53.923 86.021
40.260 58.798 71.647
42.560 61.904 57.048
45.000 64.113 42.525
47.580 65.755 28.290
50.310 67.015 14.390
53.190 67.999 0.862
56.230 68.783 -12.352
59.460 69.421 -25.403
62.860 69.944 -38.242
66.460 70.379 -51.021
70.270 70.747 -63.806
74.300 71.058 -76.658
78.550 71.325 -89.601
83.050 71.555 -102.747
87.810 71.754 -116.139
92.840 71.928 -129.817
98.160 72.081 -143.845
103.780 72.215 -158.256
109.730 72.335 -173.132
116.020 72.443 171.498
122.660 72.541 155.606
129.690 72.632 139.093
137.120 72.719 121.933
144.970 72.802 104.075
153.280 72.886 85.426
162.060 72.971 65.956
171.340 73.061 45.590
181.160 73.158 24.230
191.540 73.264 1.818
202.510 73.381 -21.727
214.110 73.510 -46.513
226.380 73.653 -72.651
239.350 73.810 -100.231
253.060 73.980 -129.369
267.560 74.161 -160.202
282.890 74.351 167.154
299.090 74.544 132.589
316.230 74.735 95.931
334.340 74.917 57.104
353.500 75.080 15.933
373.750 75.215 -27.651
395.160 75.310 -73.761
417.800 75.355 -122.479
441.730 75.342 -173.825
467.040 75.269 132.154
493.800 75.145 75.471
522.090 74.994 16.080
552.000 74.848 -46.187
583.620 74.736 -111.637
617.050 74.669 179.323
652.400 74.638 106.287
689.780 74.623 28.944
729.290 74.603 -52.923
771.080 74.560 -139.560
815.250 74.479 129.010
861.950 74.373 32.806
911.330 74.321 -68.241
963.540 74.444 -174.827
1018.740 74.782 71.459
1077.110 75.167 -50.946
1138.810 75.325 177.835
1204.050 75.142 39.010
1273.030 74.712 -106.629
1345.960 74.195 100.661
1423.070 73.662 -60.097
1504.590 73.078 130.215
1590.790 72.369 -48.580
1681.920 71.668 123.923
1778.280 71.235 -74.130
1880.150 70.915 74.117
1987.870 70.305 -152.072
2101.750 69.226 -31.772
2222.150 67.653 75.394
2349.460 65.553 169.606
2484.060 63.012 -108.622
2626.360 60.225 -41.594
2776.820 56.381 6.971
2935.900 49.208 40.853
3104.100 36.870 -166.290
3281.930 49.873 -155.769
3469.940 54.818 -179.353
3668.730 57.482 126.403
3878.910 58.207 47.565
4101.130 57.779 -51.490
4336.070 57.549 -174.290
4584.480 56.675 28.510
4847.120 54.023 -158.111
5124.810 49.960 -10.708
5418.400 42.664 101.788
5728.810 29.671 -6.763
6057.010 44.395 42.974
6404.000 48.221 38.901
6770.880 48.597 2.717
7158.770 47.778 -82.464
7568.890 43.758 146.776
8002.500 33.471 -34.773
8460.950 34.441 -70.067
8945.670 41.113 1.999
9458.160 41.631 20.954
10000.000 38.398 -23.267
