# Freq(Hz) SPL(dB) Phase (degrees)
10.000 51.772 106.580
10.570 52.570 102.528
11.180 53.358 98.209
11.820 54.119 93.696
12.500 54.862 88.920
13.210 55.569 83.953
13.970 56.256 78.656
14.770 56.908 73.100
15.620 57.526 67.213
16.510 58.096 61.063
17.460 58.622 54.507
18.460 59.088 47.606
19.510 59.483 40.351
20.630 59.799 32.588
21.810 60.012 24.369
23.060 60.096 15.600
24.380 60.011 6.255
25.780 59.698 -3.764
27.260 59.065 -14.478
28.820 57.957 -25.887
30.470 56.070 -38.015
32.220 52.651 -50.724
34.060 44.638 -62.513
36.010 42.752 95.579
38.080 53.657 83.643
40.260 58.531 69.130
42.560 61.637 54.385
45.000 63.845 39.707
47.580 65.487 25.307
50.310 66.745 11.233
53.190 67.728 -2.481
56.230 68.510 -15.892
59.460 69.147 -29.152
62.860 69.667 -42.212
66.460 70.101 -55.227
70.270 70.465 -68.263
74.300 70.774 -81.381
78.550 71.036 -94.606
83.050 71.262 -108.053
87.810 71.456 -121.766
92.840 71.623 -135.784
98.160 71.768 -150.174
103.780 71.894 -164.970
109.730 72.003 179.744
116.020 72.098 163.940
122.660 72.181 147.588
129.690 72.253 130.588
137.120 72.318 112.915
144.970 72.375 94.518
153.280 72.428 75.303
162.060 72.478 55.244
171.340 72.526 34.270
181.160 72.575 12.286
191.540 72.625 -10.759
202.510 72.679 -34.938
214.110 72.738 -60.351
226.380 72.804 -87.098
239.350 72.878 -115.260
253.060 72.960 -144.943
267.560 73.051 -176.278
282.890 73.151 150.622
299.090 73.258 115.640
316.230 73.369 78.592
334.340 73.480 39.382
353.500 73.582 -2.194
373.750 73.667 -46.241
395.160 73.718 -92.909
417.800 73.722 -142.312
441.730 73.660 165.513
467.040 73.519 110.529
493.800 73.296 52.813
522.090 73.008 -7.550
552.000 72.694 -70.540
583.620 72.413 -136.295
617.050 72.231 154.764
652.400 72.184 81.939
689.780 72.256 4.456
729.290 72.390 -78.265
771.080 72.514 -166.612
815.250 72.570 99.331
861.950 72.516 -0.527
911.330 72.324 -106.179
963.540 71.995 142.449
1018.740 71.569 25.293
1077.110 71.089 -98.051
1138.810 70.557 131.867
1204.050 69.950 -5.514
1273.030 69.176 -150.216
1345.960 68.276 58.520
1423.070 67.561 -99.266
1504.590 67.296 93.334
1590.790 67.120 -87.166
1681.920 66.510 79.663
1778.280 65.275 -123.448
1880.150 63.911 26.415
1987.870 63.180 164.585
2101.750 62.434 -75.106
2222.150 60.879 29.098
2349.460 58.485 119.982
2484.060 55.269 -162.783
2626.360 50.685 -98.664
2776.820 43.913 -43.200
2935.900 29.506 72.237
3104.100 44.846 134.180
3281.930 48.355 148.957
3469.940 51.132 115.039
3668.730 52.006 57.217
3878.910 51.382 -20.213
4101.130 51.317 -117.535
4336.070 50.270 109.743
4584.480 48.026 -44.633
4847.120 44.934 128.317
5124.810 38.033 -88.785
5418.400 23.463 133.502
5728.810 37.460 -103.780
6057.010 41.583 -62.033
6404.000 42.840 -66.535
6770.880 41.780 -106.786
7158.770 38.143 163.604
7568.890 29.901 39.567
8002.500 26.305 5.039
8460.950 34.077 141.020
8945.670 35.251 -137.000
9458.160 33.624 -126.050
10000.000 22.783 -164.560
