# Freq(Hz) SPL(dB) Phase (degrees)
10.000 51.346 105.528
10.570 52.144 101.416
11.180 52.932 97.032
11.820 53.694 92.451
12.500 54.436 87.604
13.210 55.143 82.562
13.970 55.831 77.185
14.770 56.483 71.545
15.620 57.100 65.569
16.510 57.670 59.325
17.460 58.196 52.668
18.460 58.662 45.662
19.510 59.057 38.296
20.630 59.373 30.415
21.810 59.586 22.071
23.060 59.670 13.170
24.380 59.586 3.685
25.780 59.273 -6.481
27.260 58.640 -17.352
28.820 57.532 -28.927
30.470 55.645 -41.230
32.220 52.226 -54.124
34.060 44.213 -66.109
36.010 42.327 91.776
38.080 53.232 79.620
40.260 58.107 64.874
42.560 61.212 49.884
45.000 63.420 34.945
47.580 65.062 20.268
50.310 66.321 5.901
53.190 67.303 -8.123
56.230 68.086 -21.861
59.460 68.722 -35.470
62.860 69.242 -48.899
66.460 69.675 -62.305
70.270 70.039 -75.755
74.300 70.347 -89.314
78.550 70.608 -103.005
83.050 70.832 -116.947
87.810 71.024 -131.185
92.840 71.189 -145.761
98.160 71.330 -160.742
103.780 71.452 -176.165
109.730 71.555 167.884
116.020 71.643 151.375
122.660 71.718 134.278
129.690 71.780 116.489
137.120 71.831 97.982
144.970 71.873 78.707
153.280 71.907 58.567
162.060 71.934 37.539
171.340 71.955 15.552
181.160 71.971 -7.486
191.540 71.984 -31.622
202.510 71.995 -56.923
214.110 72.006 -83.481
226.380 72.019 -111.389
239.350 72.035 -140.716
253.060 72.058 -171.560
267.560 72.090 155.957
282.890 72.135 121.730
299.090 72.195 85.643
316.230 72.272 47.505
334.340 72.369 7.201
353.500 72.483 -35.506
373.750 72.611 -80.769
395.160 72.743 -128.807
417.800 72.866 -179.823
441.730 72.962 126.037
467.040 73.011 68.607
493.800 72.997 7.823
522.090 72.908 -56.360
552.000 72.743 -124.003
583.620 72.506 164.812
617.050 72.202 89.945
652.400 71.833 11.252
689.780 71.400 -71.330
729.290 70.929 -157.764
771.080 70.482 111.803
815.250 70.149 17.006
861.950 69.999 -83.083
911.330 70.025 170.350
963.540 70.138 56.256
1018.740 70.192 -65.971
1077.110 70.026 163.613
1138.810 69.531 25.803
1204.050 68.772 -118.465
1273.030 67.968 90.877
1345.960 67.259 -67.552
1423.070 66.615 124.750
1504.590 65.901 -53.166
1590.790 64.940 118.849
1681.920 63.828 -77.751
1778.280 63.017 76.152
1880.150 62.623 -143.988
1987.870 62.095 -21.469
2101.750 60.764 84.236
2222.150 58.145 177.049
2349.460 54.843 -96.872
2484.060 51.971 -23.241
2626.360 48.205 31.261
2776.820 41.567 77.137
2935.900 35.519 172.844
3104.100 45.059 -137.250
3281.930 45.859 -163.754
3469.940 48.691 154.537
3668.730 49.972 75.250
3878.910 48.621 -22.124
4101.130 47.815 -138.567
4336.070 46.558 75.220
4584.480 44.794 -103.433
4847.120 40.076 46.845
5124.810 34.115 -179.416
5418.400 25.761 -1.431
5728.810 34.397 89.840
6057.010 38.702 105.704
6404.000 38.150 72.629
6770.880 37.534 1.760
7158.770 33.782 -113.889
7568.890 28.558 111.008
8002.500 24.566 3.259
8460.950 31.094 105.196
8945.670 32.137 135.701
9458.160 29.479 98.204
10000.000 22.041 27.979
