# Freq(Hz) SPL(dB) Phase (degrees)
10.000 52.010 107.146
10.570 52.807 103.126
11.180 53.596 98.841
11.820 54.357 94.364
12.500 55.099 89.627
13.210 55.807 84.700
13.970 56.494 79.446
14.770 57.146 73.935
15.620 57.764 68.097
16.510 58.334 61.997
17.460 58.860 55.495
18.460 59.326 48.651
19.510 59.721 41.455
20.630 60.037 33.756
21.810 60.250 25.604
23.060 60.334 16.906
24.380 60.250 7.636
25.780 59.937 -2.303
27.260 59.304 -12.932
28.820 58.196 -24.253
30.470 56.309 -36.287
32.220 52.890 -48.896
34.060 44.877 -60.579
36.010 42.991 97.624
38.080 53.897 85.807
40.260 58.772 71.419
42.560 61.877 56.806
45.000 64.086 42.269
47.580 65.728 28.017
50.310 66.987 14.101
53.190 67.970 0.554
56.230 68.754 -12.679
59.460 69.391 -25.751
62.860 69.913 -38.613
66.460 70.348 -51.417
70.270 70.714 -64.228
74.300 71.024 -77.108
78.550 71.289 -90.082
83.050 71.517 -103.262
87.810 71.714 -116.691
92.840 71.886 -130.409
98.160 72.035 -144.480
103.780 72.166 -158.938
109.730 72.282 -173.866
116.020 72.385 170.708
122.660 72.477 154.754
129.690 72.561 138.175
137.120 72.639 120.943
144.970 72.712 103.008
153.280 72.784 84.276
162.060 72.855 64.719
171.340 72.928 44.261
181.160 73.004 22.808
191.540 73.086 0.303
202.510 73.175 -23.333
214.110 73.272 -48.202
226.380 73.378 -74.412
239.350 73.493 -102.047
253.060 73.616 -131.218
267.560 73.746 -162.058
282.890 73.881 165.324
299.090 74.015 130.816
316.230 74.144 94.250
334.340 74.261 55.546
353.500 74.355 14.529
373.750 74.417 -28.872
395.160 74.432 -74.767
417.800 74.387 -123.224
441.730 74.272 -174.232
467.040 74.082 132.214
493.800 73.830 76.203
522.090 73.551 17.776
552.000 73.302 -43.185
583.620 73.142 -107.049
617.050 73.108 -174.454
652.400 73.185 113.874
689.780 73.317 37.394
729.290 73.435 -44.095
771.080 73.500 -130.658
815.250 73.508 137.782
861.950 73.481 41.073
911.330 73.451 -61.099
963.540 73.449 -169.289
1018.740 73.464 75.607
1077.110 73.374 -47.284
1138.810 72.978 -177.845
1204.050 72.187 45.098
1273.030 71.159 -96.903
1345.960 70.294 115.932
1423.070 69.842 -39.360
1504.590 69.543 154.247
1590.790 69.010 -23.092
1681.920 68.223 150.262
1778.280 67.460 -45.641
1880.150 66.890 106.655
1987.870 66.218 -114.797
2101.750 65.402 10.258
2222.150 64.301 118.718
2349.460 62.172 -148.918
2484.060 58.866 -68.530
2626.360 54.734 0.927
2776.820 49.203 53.852
2935.900 34.536 81.107
3104.100 40.853 -67.786
3281.930 50.554 -80.593
3469.940 53.963 -107.972
3668.730 55.122 -160.330
3878.910 55.037 129.098
4101.130 54.962 36.819
4336.070 54.257 -87.338
4584.480 52.207 124.302
4847.120 49.572 -54.010
5124.810 43.799 92.665
5418.400 23.102 -159.080
5728.810 40.060 116.766
6057.010 44.882 166.643
6404.000 46.816 174.195
6770.880 46.557 141.574
7158.770 43.411 61.584
7568.890 35.415 -61.935
8002.500 25.352 -34.591
8460.950 37.856 94.917
8945.670 40.843 -172.445
9458.160 38.900 -145.568
10000.000 30.513 -178.253
