# Freq(Hz) SPL(dB) Phase (degrees)
10.000 53.140 109.623
10.570 53.938 105.745
11.180 54.726 101.611
11.820 55.489 97.293
12.500 56.231 92.724
13.210 56.939 87.974
13.970 57.628 82.908
14.770 58.280 77.596
15.620 58.899 71.968
16.510 59.470 66.090
17.460 59.997 59.823
18.460 60.464 53.227
19.510 60.861 46.292
20.630 61.179 38.871
21.810 61.393 31.012
23.060 61.479 22.624
24.380 61.397 13.683
25.780 61.087 4.092
27.260 60.457 -6.170
28.820 59.352 -17.103
30.470 57.469 -28.726
32.220 54.054 -40.899
34.060 46.046 -52.124
36.010 44.165 106.565
38.080 55.077 95.264
40.260 59.958 81.420
42.560 63.071 67.381
45.000 65.288 53.453
47.580 66.940 39.847
50.310 68.210 26.613
53.190 69.205 13.786
56.230 70.003 1.313
59.460 70.656 -10.951
62.860 71.196 -22.963
66.460 71.651 -34.867
70.270 72.040 -46.728
74.300 72.377 -58.603
78.550 72.673 -70.521
83.050 72.935 -82.585
87.810 73.172 -94.840
92.840 73.389 -107.325
98.160 73.589 -120.101
103.780 73.779 -133.206
109.730 73.961 -146.719
116.020 74.139 -160.673
122.660 74.315 -175.102
129.690 74.493 169.895
137.120 74.676 154.282
144.970 74.865 138.000
153.280 75.063 120.949
162.060 75.272 103.089
171.340 75.491 84.334
181.160 75.722 64.583
191.540 75.963 43.770
202.510 76.213 21.813
214.110 76.470 -1.386
226.380 76.730 -25.921
239.350 76.989 -51.859
253.060 77.242 -79.275
267.560 77.484 -108.253
282.890 77.713 -138.844
299.090 77.924 -171.084
316.230 78.119 154.944
334.340 78.301 119.241
353.500 78.480 81.707
373.750 78.671 42.293
395.160 78.892 0.847
417.800 79.166 -42.859
441.730 79.505 -89.113
467.040 79.912 -138.331
493.800 80.366 169.103
522.090 80.826 112.853
552.000 81.239 52.723
583.620 81.552 -11.284
617.050 81.731 -79.010
652.400 81.780 -150.251
689.780 81.732 135.119
729.290 81.645 57.051
771.080 81.575 -24.851
815.250 81.554 -111.088
861.950 81.574 157.689
911.330 81.589 60.969
963.540 81.536 -41.467
1018.740 81.373 -149.507
1077.110 81.129 97.161
1138.810 80.937 -21.517
1204.050 80.906 -146.774
1273.030 80.959 80.053
1345.960 80.975 -61.331
1423.070 80.946 148.995
1504.590 80.849 -9.575
1590.790 80.594 -177.189
1681.920 80.217 6.589
1778.280 79.844 -178.807
1880.150 79.483 -14.355
1987.870 79.102 139.455
2101.750 78.784 -77.417
2222.150 78.705 53.443
2349.460 78.708 169.929
2484.060 78.675 -88.047
2626.360 78.601 -1.028
2776.820 78.498 70.324
2935.900 78.378 125.104
3104.100 78.232 162.249
3281.930 78.017 -179.198
3469.940 77.704 -179.841
3668.730 77.360 159.899
3878.910 77.176 118.494
4101.130 77.095 52.993
4336.070 76.934 -37.357
4584.480 76.673 -153.619
4847.120 76.399 63.294
5124.810 76.087 -108.693
5418.400 75.734 49.175
5728.810 75.378 174.958
6057.010 74.970 -93.272
6404.000 74.554 -36.817
6770.880 74.208 -18.531
7158.770 73.795 -41.097
7568.890 73.286 -105.637
8002.500 72.788 145.260
8460.950 72.300 -11.643
8945.670 71.658 141.431
9458.160 71.058 -117.891
10000.000 70.474 -73.565
