# Freq(Hz) SPL(dB) Phase (degrees)
10.000 50.876 104.299
10.570 51.673 100.117
11.180 52.462 95.659
11.820 53.223 90.999
12.500 53.966 86.068
13.210 54.673 80.939
13.970 55.361 75.469
14.770 56.013 69.729
15.620 56.631 63.649
16.510 57.201 57.295
17.460 57.728 50.522
18.460 58.194 43.392
19.510 58.590 35.897
20.630 58.906 27.878
21.810 59.120 19.388
23.060 59.204 10.332
24.380 59.121 0.685
25.780 58.809 -9.655
27.260 58.176 -20.709
28.820 57.070 -32.477
30.470 55.184 -44.985
32.220 51.766 -58.096
34.060 43.754 -70.309
36.010 41.870 87.333
38.080 52.777 74.919
40.260 57.653 59.901
42.560 60.761 44.623
45.000 62.971 29.378
47.580 64.616 14.378
50.310 65.877 -0.333
53.190 66.863 -14.721
56.230 67.648 -28.844
59.460 68.289 -42.864
62.860 68.813 -56.726
66.460 69.251 -70.594
70.270 69.619 -84.535
74.300 69.933 -98.615
78.550 70.200 -112.859
83.050 70.430 -127.391
87.810 70.629 -142.256
92.840 70.802 -157.500
98.160 70.951 -173.193
103.780 71.081 170.625
109.730 71.194 153.864
116.020 71.291 136.489
122.660 71.375 118.468
129.690 71.446 99.690
137.120 71.507 80.126
144.970 71.558 59.720
153.280 71.599 38.368
162.060 71.632 16.042
171.340 71.656 -7.333
181.160 71.673 -31.860
191.540 71.681 -57.586
202.510 71.682 -84.585
214.110 71.675 -112.953
226.380 71.660 -142.782
239.350 71.636 -174.140
253.060 71.604 152.886
267.560 71.564 118.185
282.890 71.517 81.675
299.090 71.464 43.272
316.230 71.408 2.822
334.340 71.354 -39.740
353.500 71.305 -84.609
373.750 71.267 -131.900
395.160 71.243 178.183
417.800 71.236 125.418
441.730 71.240 69.598
467.040 71.247 10.464
493.800 71.243 -52.158
522.090 71.217 -118.410
552.000 71.162 171.583
583.620 71.086 97.683
617.050 71.001 19.659
652.400 70.914 -62.828
689.780 70.816 -150.148
729.290 70.688 117.400
771.080 70.503 19.482
815.250 70.234 -84.039
861.950 69.851 166.695
911.330 69.337 51.727
963.540 68.717 -68.706
1018.740 68.105 165.547
1077.110 67.690 33.827
1138.810 67.568 -105.576
1204.050 67.677 105.024
1273.030 67.752 -54.920
1345.960 67.657 134.406
1423.070 67.305 -46.989
1504.590 66.635 120.772
1590.790 65.518 -82.189
1681.920 63.905 65.496
1778.280 62.064 -154.643
1880.150 60.626 -23.528
1987.870 59.884 92.985
2101.750 59.229 -169.869
2222.150 57.751 -92.610
2349.460 54.887 -31.033
2484.060 50.707 20.743
2626.360 46.081 65.496
2776.820 41.003 100.734
2935.900 36.514 149.409
3104.100 39.670 157.941
3281.930 41.977 137.059
3469.940 44.359 78.629
3668.730 46.085 -19.822
3878.910 44.759 -147.423
4101.130 42.928 73.255
4336.070 42.785 -100.110
4584.480 40.269 39.503
4847.120 34.156 162.778
5124.810 27.958 -100.227
5418.400 18.750 28.630
5728.810 23.739 91.100
6057.010 23.674 81.435
6404.000 24.971 21.195
6770.880 18.428 -122.811
7158.770 18.403 159.646
7568.890 11.121 -21.081
8002.500 14.876 -161.102
8460.950 15.641 -119.920
8945.670 19.760 -128.560
9458.160 19.524 -167.955
10000.000 17.189 35.426
