# Freq(Hz) SPL(dB) Phase (degrees)
10.000 52.587 108.453
10.570 53.385 104.507
11.180 54.173 100.302
11.820 54.935 95.909
12.500 55.678 91.261
13.210 56.385 86.427
13.970 57.073 81.273
14.770 57.725 75.866
15.620 58.344 70.139
16.510 58.914 64.156
17.460 59.440 57.779
18.460 59.907 51.066
19.510 60.303 44.008
20.630 60.620 36.455
21.810 60.833 28.458
23.060 60.918 19.924
24.380 60.835 10.828
25.780 60.523 1.073
27.260 59.891 -9.362
28.820 58.785 -20.478
30.470 56.900 -32.294
32.220 53.482 -44.672
34.060 45.472 -56.113
36.010 43.588 102.348
38.080 54.496 90.805
40.260 59.374 76.706
42.560 62.483 62.398
45.000 64.695 48.184
47.580 66.342 34.276
50.310 67.605 20.724
53.190 68.594 7.561
56.230 69.384 -5.266
59.460 70.029 -17.905
62.860 70.559 -30.311
66.460 71.003 -42.631
70.270 71.380 -54.930
74.300 71.703 -67.267
78.550 71.982 -79.668
83.050 72.226 -92.241
87.810 72.443 -105.027
92.840 72.636 -118.068
98.160 72.811 -131.425
103.780 72.971 -145.131
109.730 73.120 -159.268
116.020 73.262 -173.866
122.660 73.398 171.046
129.690 73.533 155.367
137.120 73.668 139.069
144.970 73.807 122.096
153.280 73.952 104.349
162.060 74.105 85.792
171.340 74.268 66.345
181.160 74.443 45.901
191.540 74.630 24.397
202.510 74.831 1.744
214.110 75.044 -22.166
226.380 75.268 -47.441
239.350 75.500 -74.167
253.060 75.736 -102.445
267.560 75.972 -132.390
282.890 76.202 -164.085
299.090 76.420 162.394
316.230 76.621 126.927
334.340 76.799 89.488
353.500 76.952 49.961
373.750 77.079 8.328
395.160 77.182 -35.483
417.800 77.270 -81.541
441.730 77.359 -129.913
467.040 77.469 179.218
493.800 77.628 125.617
522.090 77.849 68.908
552.000 78.125 8.633
583.620 78.422 -55.604
617.050 78.688 -124.042
652.400 78.881 163.260
689.780 78.976 86.364
729.290 78.978 5.384
771.080 78.912 -79.731
815.250 78.824 -169.076
861.950 78.757 96.952
911.330 78.728 -2.174
963.540 78.733 -106.916
1018.740 78.767 142.398
1077.110 78.860 25.307
1138.810 79.017 -98.925
1204.050 79.198 128.734
1273.030 79.279 -12.116
1345.960 79.176 -161.537
1423.070 78.860 40.709
1504.590 78.379 -125.363
1590.790 77.762 59.733
1681.920 77.008 -123.997
1778.280 76.271 43.124
1880.150 75.646 -160.713
1987.870 74.953 -16.802
2101.750 74.149 115.019
2222.150 73.295 -126.247
2349.460 72.235 -21.790
2484.060 70.937 68.987
2626.360 69.511 145.485
2776.820 68.096 -153.603
2935.900 66.641 -111.091
3104.100 64.853 -88.369
3281.930 62.562 -85.505
3469.940 59.898 -107.844
3668.730 56.118 -165.047
3878.910 52.329 81.754
4101.130 54.431 -56.731
4336.070 56.914 173.338
4584.480 58.611 30.547
4847.120 59.435 -138.755
5124.810 59.141 23.067
5418.400 57.942 157.616
5728.810 56.208 -98.543
6057.010 53.778 -25.482
6404.000 51.447 10.406
6770.880 45.972 6.942
7158.770 36.872 10.145
7568.890 43.901 -4.636
8002.500 48.463 -141.189
8460.950 49.437 25.532
8945.670 48.602 143.089
9458.160 45.561 -157.653
10000.000 35.831 -154.449
