# Freq(Hz) SPL(dB) Phase (degrees)
10.000 51.047 104.755
10.570 51.845 100.599
11.180 52.633 96.168
11.820 53.395 91.538
12.500 54.137 86.638
13.210 54.844 81.541
13.970 55.532 76.106
14.770 56.184 70.403
15.620 56.802 64.361
16.510 57.372 58.048
17.460 57.898 51.318
18.460 58.364 44.234
19.510 58.760 36.787
20.630 59.076 28.819
21.810 59.289 20.383
23.060 59.374 11.385
24.380 59.289 1.798
25.780 58.977 -8.478
27.260 58.344 -19.464
28.820 57.237 -31.160
30.470 55.351 -43.592
32.220 51.932 -56.623
34.060 43.920 -68.751
36.010 42.035 88.981
38.080 52.941 76.662
40.260 57.816 61.746
42.560 60.923 46.574
45.000 63.132 31.442
47.580 64.775 16.562
50.310 66.035 1.978
53.190 67.019 -12.274
56.230 67.803 -26.255
59.460 68.442 -40.123
62.860 68.964 -53.825
66.460 69.399 -67.521
70.270 69.765 -81.281
74.300 70.076 -95.168
78.550 70.340 -109.208
83.050 70.567 -123.521
87.810 70.762 -138.154
92.840 70.930 -153.151
98.160 71.075 -168.581
103.780 71.200 175.518
109.730 71.307 159.057
116.020 71.398 142.002
122.660 71.476 124.324
129.690 71.540 105.913
137.120 71.594 86.741
144.970 71.637 66.756
153.280 71.670 45.856
162.060 71.695 24.016
171.340 71.711 1.163
181.160 71.720 -22.801
191.540 71.721 -47.922
202.510 71.715 -74.269
214.110 71.703 -101.935
226.380 71.685 -131.008
239.350 71.662 -161.554
253.060 71.635 166.341
267.560 71.605 132.568
282.890 71.576 97.039
299.090 71.550 59.665
316.230 71.531 20.280
334.340 71.526 -21.203
353.500 71.537 -64.998
373.750 71.570 -111.252
395.160 71.624 -160.193
417.800 71.694 147.939
441.730 71.771 92.938
467.040 71.838 34.564
493.800 71.877 -27.329
522.090 71.876 -92.853
552.000 71.827 -162.122
583.620 71.732 124.727
617.050 71.594 47.480
652.400 71.407 -34.134
689.780 71.152 -120.347
729.290 70.808 148.745
771.080 70.360 53.055
815.250 69.816 -47.280
861.950 69.216 -152.164
911.330 68.667 98.433
963.540 68.351 -16.049
1018.740 68.418 -137.427
1077.110 68.771 91.758
1138.810 69.075 -49.664
1204.050 69.045 158.610
1273.030 68.599 -2.146
1345.960 67.756 -171.482
1423.070 66.527 10.925
1504.590 64.943 -174.280
1590.790 63.239 -5.798
1681.920 62.089 155.349
1778.280 61.670 -57.806
1880.150 61.110 71.400
1987.870 59.820 -174.911
2101.750 57.697 -73.807
2222.150 55.050 17.726
2349.460 52.709 96.679
2484.060 49.951 155.546
2626.360 45.276 -159.761
2776.820 38.668 -113.770
2935.900 35.165 -39.070
3104.100 40.818 -17.518
3281.930 43.189 -54.250
3469.940 43.749 -101.036
3668.730 46.090 176.742
3878.910 45.304 53.440
4101.130 41.957 -75.851
4336.070 41.260 127.921
4584.480 38.112 -65.549
4847.120 35.279 74.382
5124.810 25.754 -176.922
5418.400 22.680 -8.397
5728.810 28.284 45.803
6057.010 30.066 54.490
6404.000 30.145 2.295
6770.880 29.612 -83.439
7158.770 26.407 145.610
7568.890 18.678 -0.866
8002.500 15.840 -159.890
8460.950 28.220 -72.173
8945.670 25.449 -70.322
9458.160 23.361 -108.288
10000.000 12.812 64.877
