# Freq(Hz) SPL(dB) Phase (degrees)
10.000 50.711 103.851
10.570 51.508 99.643
11.180 52.297 95.157
11.820 53.059 90.469
12.500 53.801 85.508
13.210 54.509 80.347
13.970 55.197 74.842
14.770 55.849 69.067
15.620 56.468 62.948
16.510 57.038 56.555
17.460 57.565 49.738
18.460 58.031 42.564
19.510 58.427 35.021
20.630 58.745 26.952
21.810 58.959 18.409
23.060 59.044 9.297
24.380 58.961 -0.410
25.780 58.649 -10.813
27.260 58.018 -21.934
28.820 56.912 -33.773
30.470 55.027 -46.355
32.220 51.610 -59.546
34.060 43.600 -71.842
36.010 41.717 85.711
38.080 52.625 73.203
40.260 57.503 58.086
42.560 60.613 42.702
45.000 62.825 27.346
47.580 64.472 12.227
50.310 65.736 -2.610
53.190 66.725 -17.130
56.230 67.514 -31.395
59.460 68.158 -45.565
62.860 68.686 -59.587
66.460 69.129 -73.623
70.270 69.502 -87.745
74.300 69.821 -102.016
78.550 70.095 -116.464
83.050 70.332 -131.212
87.810 70.539 -146.309
92.840 70.720 -161.800
98.160 70.879 -177.757
103.780 71.020 165.780
109.730 71.144 148.716
116.020 71.254 131.018
122.660 71.353 112.651
129.690 71.440 93.499
137.120 71.518 73.534
144.970 71.588 52.695
153.280 71.650 30.875
162.060 71.705 8.043
171.340 71.754 -15.882
181.160 71.797 -41.006
191.540 71.834 -67.383
202.510 71.865 -95.092
214.110 71.889 -124.237
226.380 71.906 -154.918
239.350 71.915 172.790
253.060 71.914 138.791
267.560 71.903 102.965
282.890 71.881 65.223
299.090 71.847 25.477
316.230 71.800 -16.431
334.340 71.741 -60.563
353.500 71.671 -107.101
373.750 71.592 -156.139
395.160 71.505 152.149
417.800 71.410 97.576
441.730 71.305 39.974
467.040 71.183 -20.893
493.800 71.031 -85.178
522.090 70.835 -152.988
552.000 70.588 135.639
583.620 70.305 60.719
617.050 70.025 -17.813
652.400 69.808 -100.260
689.780 69.701 172.802
729.290 69.713 80.687
771.080 69.812 -17.328
815.250 69.952 -121.667
861.950 70.092 127.268
911.330 70.196 9.119
963.540 70.232 -116.515
1018.740 70.147 109.948
1077.110 69.849 -31.821
1138.810 69.244 178.514
1204.050 68.277 21.608
1273.030 67.112 -141.634
1345.960 65.988 48.753
1423.070 65.193 -128.505
1504.590 64.864 43.595
1590.790 64.770 -157.481
1681.920 64.616 -12.599
1778.280 64.252 118.178
1880.150 63.571 -125.243
1987.870 62.456 -23.102
2101.750 60.844 65.128
2222.150 58.635 139.862
2349.460 56.019 -158.585
2484.060 53.028 -110.359
2626.360 49.689 -75.883
2776.820 45.514 -52.919
2935.900 42.044 -23.095
3104.100 44.494 -19.705
3281.930 47.342 -64.914
3469.940 48.736 -138.398
3668.730 50.219 118.186
3878.910 50.856 -18.769
4101.130 50.118 173.732
4336.070 48.001 -21.828
4584.480 45.165 118.544
4847.120 42.133 -135.447
5124.810 35.587 -60.844
5418.400 28.432 37.881
5728.810 33.874 78.896
6057.010 36.119 35.018
6404.000 35.996 -50.381
6770.880 34.022 170.488
7158.770 29.717 -23.203
7568.890 23.045 128.665
8002.500 16.898 -91.239
8460.950 22.419 -31.211
8945.670 27.083 -78.629
9458.160 18.439 173.523
10000.000 18.162 40.202
