# Freq(Hz) SPL(dB) Phase (degrees)
10.000 52.574 108.424
10.570 53.371 104.477
11.180 54.160 100.270
11.820 54.922 95.875
12.500 55.664 91.225
13.210 56.372 86.389
13.970 57.059 81.233
14.770 57.711 75.824
15.620 58.330 70.094
16.510 58.900 64.109
17.460 59.426 57.728
18.460 59.892 51.012
19.510 60.288 43.951
20.630 60.605 36.396
21.810 60.818 28.395
23.060 60.903 19.857
24.380 60.819 10.757
25.780 60.507 0.998
27.260 59.875 -9.442
28.820 58.768 -20.562
30.470 56.883 -32.384
32.220 53.465 -44.767
34.060 45.454 -56.213
36.010 43.569 102.242
38.080 54.477 90.692
40.260 59.354 76.586
42.560 62.462 62.271
45.000 64.673 48.050
47.580 66.319 34.133
50.310 67.581 20.571
53.190 68.569 7.399
56.230 69.357 -5.439
59.460 70.000 -18.089
62.860 70.528 -30.507
66.460 70.970 -42.840
70.270 71.344 -55.153
74.300 71.664 -67.505
78.550 71.940 -79.922
83.050 72.181 -92.513
87.810 72.393 -105.318
92.840 72.582 -118.379
98.160 72.751 -131.758
103.780 72.905 -145.488
109.730 73.047 -159.651
116.020 73.180 -174.275
122.660 73.307 170.609
129.690 73.431 154.901
137.120 73.554 138.572
144.970 73.678 121.568
153.280 73.807 103.791
162.060 73.941 85.206
171.340 74.083 65.732
181.160 74.234 45.265
191.540 74.395 23.744
202.510 74.565 1.082
214.110 74.744 -22.829
226.380 74.931 -48.094
239.350 75.122 -74.798
253.060 75.312 -103.040
267.560 75.498 -132.935
282.890 75.673 -164.566
299.090 75.831 161.991
316.230 75.964 126.615
334.340 76.066 89.281
353.500 76.130 49.881
373.750 76.153 8.409
395.160 76.133 -35.177
417.800 76.074 -80.900
441.730 75.992 -128.755
467.040 75.913 -178.834
493.800 75.873 128.709
522.090 75.908 73.536
552.000 76.031 15.152
583.620 76.217 -46.922
617.050 76.422 -112.987
652.400 76.605 176.876
689.780 76.761 102.720
729.290 76.922 24.547
771.080 77.143 -58.018
815.250 77.456 -145.600
861.950 77.830 120.962
911.330 78.178 21.102
963.540 78.411 -85.335
1018.740 78.467 161.733
1077.110 78.318 42.459
1138.810 77.982 -82.905
1204.050 77.518 145.686
1273.030 76.990 7.643
1345.960 76.391 -137.196
1423.070 75.845 71.190
1504.590 75.548 -88.683
1590.790 75.378 100.772
1681.920 75.062 -80.630
1778.280 74.580 87.727
1880.150 74.030 -114.474
1987.870 73.438 31.813
2101.750 72.848 165.840
2222.150 72.254 -74.892
2349.460 71.204 28.628
2484.060 69.545 118.006
2626.360 67.335 -166.370
2776.820 64.673 -104.777
2935.900 61.481 -60.180
3104.100 56.691 -35.634
3281.930 46.947 -25.208
3469.940 45.499 141.243
3668.730 55.117 100.965
3878.910 57.849 38.142
4101.130 58.262 -38.268
4336.070 59.312 -137.199
4584.480 59.679 89.755
4847.120 58.784 -68.461
5124.810 57.506 103.192
5418.400 55.022 -116.970
5728.810 50.725 -8.491
6057.010 43.378 78.941
6404.000 36.017 -117.120
6770.880 46.256 -102.194
7158.770 49.778 -143.294
7568.890 50.135 126.078
8002.500 48.754 -7.070
8460.950 44.671 168.892
8945.670 36.830 -47.109
9458.160 32.700 158.748
10000.000 41.961 -176.313
