# Freq(Hz) SPL(dB) Phase (degrees)
10.000 52.765 108.837
10.570 53.562 104.914
11.180 54.351 100.732
11.820 55.112 96.364
12.500 55.855 91.741
13.210 56.563 86.935
13.970 57.251 81.810
14.770 57.903 76.434
15.620 58.521 70.740
16.510 59.091 64.791
17.460 59.618 58.450
18.460 60.084 51.775
19.510 60.480 44.758
20.630 60.797 37.248
21.810 61.011 29.296
23.060 61.096 20.810
24.380 61.013 11.765
25.780 60.702 2.064
27.260 60.070 -8.315
28.820 58.964 -19.370
30.470 57.079 -31.123
32.220 53.662 -43.434
34.060 45.651 -54.804
36.010 43.768 103.732
38.080 54.676 92.268
40.260 59.554 78.253
42.560 62.664 64.033
45.000 64.877 49.913
47.580 66.524 36.104
50.310 67.789 22.656
53.190 68.778 9.603
56.230 69.569 -3.108
59.460 70.215 -15.624
62.860 70.746 -27.901
66.460 71.192 -40.085
70.270 71.570 -52.240
74.300 71.895 -64.425
78.550 72.176 -76.668
83.050 72.423 -89.074
87.810 72.642 -101.685
92.840 72.839 -114.543
98.160 73.017 -127.708
103.780 73.182 -141.216
109.730 73.335 -155.147
116.020 73.482 -169.530
122.660 73.623 175.601
129.690 73.764 160.149
137.120 73.905 144.082
144.970 74.049 127.343
153.280 74.199 109.834
162.060 74.356 91.517
171.340 74.522 72.311
181.160 74.698 52.110
191.540 74.885 30.852
202.510 75.080 8.450
214.110 75.284 -15.202
226.380 75.493 -40.206
239.350 75.703 -66.641
253.060 75.910 -94.601
267.560 76.109 -124.188
282.890 76.294 -155.477
299.090 76.457 171.473
316.230 76.594 136.557
334.340 76.700 99.766
353.500 76.773 61.008
373.750 76.813 20.285
395.160 76.826 -22.451
417.800 76.827 -67.254
441.730 76.837 -114.193
467.040 76.883 -163.471
493.800 76.994 144.624
522.090 77.179 89.669
552.000 77.419 31.212
583.620 77.670 -31.053
617.050 77.885 -97.208
652.400 78.045 -167.173
689.780 78.172 119.140
729.290 78.316 41.649
771.080 78.535 -40.152
815.250 78.844 -126.932
861.950 79.199 140.577
911.330 79.523 41.999
963.540 79.764 -62.692
1018.740 79.925 -173.527
1077.110 80.022 69.069
1138.810 80.011 -55.474
1204.050 79.797 172.806
1273.030 79.341 34.241
1345.960 78.721 -110.648
1423.070 78.099 97.927
1504.590 77.599 -61.147
1590.790 77.232 130.908
1681.920 77.009 -47.011
1778.280 76.839 123.337
1880.150 76.418 -78.397
1987.870 75.733 69.304
2101.750 75.038 -154.014
2222.150 74.402 -30.165
2349.460 73.711 78.797
2484.060 72.646 172.427
2626.360 71.138 -107.894
2776.820 69.404 -42.194
2935.900 67.579 7.780
3104.100 65.538 39.930
3281.930 62.915 54.405
3469.940 59.813 50.399
3668.730 55.182 25.841
3878.910 46.756 7.849
4101.130 47.666 4.805
4336.070 50.333 -55.003
4584.480 55.322 -163.425
4847.120 57.403 42.707
5124.810 58.193 -138.408
5418.400 58.229 7.364
5728.810 57.384 119.716
6057.010 55.224 -161.808
6404.000 52.327 -116.098
6770.880 46.660 -114.133
7158.770 31.952 -142.560
7568.890 42.024 -58.937
8002.500 47.480 175.435
8460.950 49.149 1.624
8945.670 48.106 131.205
9458.160 46.065 -144.231
10000.000 38.697 -117.653
