# Freq(Hz) SPL(dB) Phase (degrees)
10.000 50.519 103.320
10.570 51.317 99.082
11.180 52.105 94.564
11.820 52.867 89.842
12.500 53.610 84.844
13.210 54.318 79.646
13.970 55.006 74.101
14.770 55.659 68.283
15.620 56.277 62.119
16.510 56.848 55.678
17.460 57.375 48.811
18.460 57.842 41.584
19.510 58.238 33.985
20.630 58.556 25.856
21.810 58.770 17.250
23.060 58.856 8.072
24.380 58.773 -1.705
25.780 58.463 -12.183
27.260 57.832 -23.382
28.820 56.727 -35.304
30.470 54.843 -47.975
32.220 51.427 -61.259
34.060 43.418 -73.653
36.010 41.536 83.796
38.080 52.446 71.177
40.260 57.326 55.943
42.560 60.437 40.436
45.000 62.651 24.949
47.580 64.300 9.691
50.310 65.567 -5.292
53.190 66.558 -19.968
56.230 67.350 -34.396
59.460 67.998 -48.741
62.860 68.530 -62.947
66.460 68.976 -77.179
70.270 69.355 -91.508
74.300 69.679 -105.999
78.550 69.958 -120.680
83.050 70.202 -135.676
87.810 70.416 -151.036
92.840 70.605 -166.805
98.160 70.773 176.941
103.780 70.924 160.164
109.730 71.059 142.765
116.020 71.182 124.710
122.660 71.294 105.964
129.690 71.397 86.408
137.120 71.492 66.011
144.970 71.580 44.713
153.280 71.664 22.402
162.060 71.743 -0.956
171.340 71.818 -25.443
181.160 71.890 -51.170
191.540 71.959 -78.195
202.510 72.026 -106.601
214.110 72.090 -136.497
226.380 72.151 -167.990
239.350 72.209 158.838
253.060 72.262 123.882
267.560 72.311 87.013
282.890 72.354 48.129
299.090 72.390 7.131
316.230 72.419 -36.157
334.340 72.441 -81.809
353.500 72.456 -130.028
373.750 72.463 179.078
395.160 72.464 125.319
417.800 72.457 68.494
441.730 72.439 8.417
467.040 72.401 -55.178
493.800 72.332 -122.496
522.090 72.212 166.273
552.000 72.019 90.983
583.620 71.737 11.581
617.050 71.365 -71.950
652.400 70.920 -159.668
689.780 70.437 108.257
729.290 69.948 11.535
771.080 69.471 -90.351
815.250 69.003 162.207
861.950 68.529 48.788
911.330 68.036 -70.919
963.540 67.526 162.830
1018.740 67.012 29.740
1077.110 66.520 -110.568
1138.810 66.090 101.431
1204.050 65.781 -55.074
1273.030 65.573 138.809
1345.960 65.416 -37.893
1423.070 65.206 134.128
1504.590 64.890 -65.637
1590.790 64.382 82.260
1681.920 63.641 -142.369
1778.280 62.636 -20.034
1880.150 61.356 88.685
1987.870 59.741 -177.145
2101.750 57.627 -98.428
2222.150 54.780 -34.875
2349.460 51.047 14.125
2484.060 46.099 50.008
2626.360 39.510 79.682
2776.820 32.614 122.669
2935.900 33.537 164.822
3104.100 37.943 145.711
3281.930 40.968 81.274
3469.940 42.412 -19.970
3668.730 41.379 -155.877
3878.910 37.823 37.870
4101.130 31.057 -174.170
4336.070 29.814 -113.721
4584.480 32.249 -37.267
4847.120 29.820 30.836
5124.810 25.136 88.281
5418.400 20.132 152.722
5728.810 23.665 -149.000
6057.010 30.698 156.839
6404.000 34.033 27.482
6770.880 33.480 -143.583
7158.770 28.194 4.999
7568.890 22.441 131.326
8002.500 17.557 -113.443
8460.950 24.622 -100.757
8945.670 27.363 -158.663
9458.160 24.712 62.417
10000.000 17.293 -157.164
