# Freq(Hz) SPL(dB) Phase (degrees)
10.000 51.799 106.644
10.570 52.596 102.595
11.180 53.384 98.280
11.820 54.146 93.771
12.500 54.888 88.999
13.210 55.595 84.037
13.970 56.283 78.745
14.770 56.935 73.194
15.620 57.552 67.313
16.510 58.122 61.168
17.460 58.648 54.618
18.460 59.114 47.724
19.510 59.509 40.475
20.630 59.825 32.720
21.810 60.038 24.508
23.060 60.122 15.747
24.380 60.037 6.411
25.780 59.725 -3.598
27.260 59.091 -14.303
28.820 57.984 -25.702
30.470 56.097 -37.819
32.220 52.678 -50.516
34.060 44.664 -62.292
36.010 42.778 95.813
38.080 53.684 83.891
40.260 58.558 69.393
42.560 61.663 54.664
45.000 63.871 40.003
47.580 65.513 25.621
50.310 66.772 11.566
53.190 67.755 -2.127
56.230 68.537 -15.515
59.460 69.174 -28.751
62.860 69.695 -41.785
66.460 70.129 -54.772
70.270 70.493 -67.777
74.300 70.802 -80.862
78.550 71.065 -94.052
83.050 71.291 -107.461
87.810 71.486 -121.131
92.840 71.655 -135.104
98.160 71.801 -149.444
103.780 71.928 -164.185
109.730 72.040 -179.411
116.020 72.137 164.851
122.660 72.223 148.571
129.690 72.300 131.650
137.120 72.370 114.062
144.970 72.434 95.760
153.280 72.495 76.647
162.060 72.555 56.700
171.340 72.615 35.844
181.160 72.679 13.986
191.540 72.748 -8.927
202.510 72.825 -32.972
214.110 72.912 -58.251
226.380 73.010 -84.870
239.350 73.122 -112.916
253.060 73.248 -142.503
267.560 73.388 -173.770
282.890 73.542 153.163
299.090 73.707 118.174
316.230 73.879 81.074
334.340 74.052 41.765
353.500 74.219 0.047
373.750 74.368 -44.183
395.160 74.487 -91.071
417.800 74.562 -140.736
441.730 74.576 166.771
467.040 74.520 111.380
493.800 74.390 53.107
522.090 74.195 -8.043
552.000 73.957 -72.129
583.620 73.704 -139.300
617.050 73.461 150.185
652.400 73.245 76.002
689.780 73.067 -2.175
729.290 72.936 -84.698
771.080 72.850 -172.091
815.250 72.773 95.281
861.950 72.660 -2.772
911.330 72.503 -106.122
963.540 72.384 145.302
1018.740 72.447 30.744
1077.110 72.716 -91.614
1138.810 72.987 136.821
1204.050 73.006 -3.847
1273.030 72.689 -152.770
1345.960 72.071 50.743
1423.070 71.261 -113.038
1504.590 70.415 75.586
1590.790 69.674 -104.637
1681.920 69.021 64.609
1778.280 68.305 -137.368
1880.150 67.630 9.393
1987.870 67.057 141.982
2101.750 66.091 -101.522
2222.150 64.259 0.841
2349.460 61.760 92.417
2484.060 59.045 170.958
2626.360 55.599 -126.567
2776.820 50.282 -79.271
2935.900 37.686 -23.987
3104.100 41.706 109.010
3281.930 51.096 99.699
3469.940 54.227 66.206
3668.730 55.884 6.956
3878.910 56.124 -77.659
4101.130 55.439 177.609
4336.070 54.919 45.833
4584.480 53.423 -118.868
4847.120 49.753 47.346
5124.810 44.117 -171.397
5418.400 26.138 -40.586
5728.810 40.442 169.249
6057.010 46.044 -157.007
6404.000 47.412 -169.423
6770.880 46.672 144.237
7158.770 44.355 46.166
7568.890 37.359 -86.071
8002.500 25.170 -129.067
8460.950 38.400 9.217
8945.670 41.105 67.111
9458.160 39.652 73.690
10000.000 31.684 14.435
