# Freq(Hz) SPL(dB) Phase (degrees)
10.000 51.539 106.011
10.570 52.337 101.926
11.180 53.125 97.572
11.820 53.887 93.023
12.500 54.629 88.208
13.210 55.336 83.201
13.970 56.024 77.860
14.770 56.675 72.258
15.620 57.293 66.323
16.510 57.863 60.123
17.460 58.389 53.512
18.460 58.855 46.554
19.510 59.250 39.239
20.630 59.566 31.412
21.810 59.779 23.125
23.060 59.863 14.285
24.380 59.779 4.864
25.780 59.466 -5.235
27.260 58.833 -16.034
28.820 57.725 -27.533
30.470 55.838 -39.756
32.220 52.419 -52.565
34.060 44.406 -64.460
36.010 42.520 93.520
38.080 53.425 81.464
40.260 58.300 66.825
42.560 61.405 51.946
45.000 63.613 37.127
47.580 65.255 22.576
50.310 66.513 8.343
53.190 67.496 -5.540
56.230 68.279 -19.129
59.460 68.915 -32.579
62.860 69.436 -45.841
66.460 69.869 -59.069
70.270 70.233 -72.332
74.300 70.541 -85.691
78.550 70.803 -99.171
83.050 71.027 -112.890
87.810 71.220 -126.891
92.840 71.386 -141.217
98.160 71.529 -155.932
103.780 71.652 -171.074
109.730 71.758 173.272
116.020 71.849 157.077
122.660 71.926 140.311
129.690 71.992 122.871
137.120 72.048 104.733
144.970 72.096 85.845
153.280 72.136 66.112
162.060 72.171 45.509
171.340 72.201 23.966
181.160 72.228 1.388
191.540 72.253 -22.271
202.510 72.277 -47.082
214.110 72.302 -73.138
226.380 72.329 -100.534
239.350 72.361 -129.343
253.060 72.398 -159.664
267.560 72.443 168.380
282.890 72.496 134.681
299.090 72.560 99.127
316.230 72.635 61.531
334.340 72.719 21.786
353.500 72.808 -20.330
373.750 72.897 -64.954
395.160 72.972 -112.274
417.800 73.019 -162.455
441.730 73.017 144.407
467.040 72.949 88.215
493.800 72.799 28.990
522.090 72.568 -33.210
552.000 72.274 -98.334
583.620 71.955 -166.393
617.050 71.666 122.437
652.400 71.466 47.735
689.780 71.392 -31.135
729.290 71.442 -114.882
771.080 71.576 155.764
815.250 71.735 60.339
861.950 71.850 -41.583
911.330 71.847 -150.263
963.540 71.653 94.217
1018.740 71.199 -28.086
1077.110 70.412 -156.839
1138.810 69.284 69.036
1204.050 68.075 -69.478
1273.030 67.136 146.267
1345.960 66.485 -6.684
1423.070 65.846 -169.409
1504.590 65.136 18.760
1590.790 64.511 -162.597
1681.920 64.026 4.851
1778.280 63.512 159.173
1880.150 62.619 -59.684
1987.870 61.329 70.250
2101.750 60.193 -171.663
2222.150 59.014 -72.158
2349.460 56.553 8.836
2484.060 52.264 77.964
2626.360 46.575 143.040
2776.820 39.724 -157.937
2935.900 31.168 -38.442
3104.100 44.123 29.104
3281.930 46.216 -3.971
3469.940 48.086 -43.047
3668.730 48.797 -109.614
3878.910 46.675 167.782
4101.130 47.448 70.553
4336.070 46.839 -73.820
4584.480 44.428 121.557
4847.120 40.747 -75.191
5124.810 33.732 62.125
5418.400 25.164 -96.144
5728.810 34.407 5.151
6057.010 38.261 44.874
6404.000 38.982 24.397
6770.880 38.255 -26.633
7158.770 33.707 -132.009
7568.890 23.811 72.753
8002.500 24.073 27.111
8460.950 30.254 146.200
8945.670 31.677 -163.212
9458.160 27.551 -150.069
10000.000 20.442 172.428
