# Freq(Hz) SPL(dB) Phase (degrees)
10.000 52.848 109.015
10.570 53.646 105.102
11.180 54.434 100.931
11.820 55.196 96.574
12.500 55.939 91.964
13.210 56.647 87.170
13.970 57.334 82.059
14.770 57.987 76.697
15.620 58.605 71.018
16.510 59.175 65.085
17.460 59.702 58.761
18.460 60.169 52.104
19.510 60.565 45.105
20.630 60.882 37.616
21.810 61.096 29.685
23.060 61.181 21.221
24.380 61.098 12.199
25.780 60.787 2.523
27.260 60.155 -7.828
28.820 59.050 -18.856
30.470 57.165 -30.580
32.220 53.748 -42.859
34.060 45.738 -54.196
36.010 43.856 104.375
38.080 54.765 92.948
40.260 59.643 78.971
42.560 62.753 64.793
45.000 64.967 50.716
47.580 66.615 36.953
50.310 67.881 23.554
53.190 68.871 10.553
56.230 69.663 -2.105
59.460 70.311 -14.563
62.860 70.843 -26.779
66.460 71.291 -38.899
70.270 71.671 -50.987
74.300 71.998 -63.101
78.550 72.282 -75.269
83.050 72.532 -87.596
87.810 72.755 -100.126
92.840 72.955 -112.897
98.160 73.138 -125.973
103.780 73.307 -139.387
109.730 73.466 -153.219
116.020 73.619 -167.502
122.660 73.767 177.733
129.690 73.915 162.387
137.120 74.064 146.427
144.970 74.218 129.797
153.280 74.377 112.398
162.060 74.545 94.191
171.340 74.722 75.094
181.160 74.909 55.002
191.540 75.106 33.851
202.510 75.313 11.555
214.110 75.526 -11.989
226.380 75.745 -36.883
239.350 75.964 -63.204
253.060 76.178 -91.040
267.560 76.383 -120.491
282.890 76.572 -151.625
299.090 76.740 175.504
316.230 76.882 140.799
334.340 76.994 104.256
353.500 77.076 65.786
373.750 77.132 25.392
395.160 77.172 -16.988
417.800 77.212 -61.431
441.730 77.275 -108.049
467.040 77.389 -157.102
493.800 77.570 151.077
522.090 77.816 96.057
552.000 78.098 37.433
583.620 78.364 -25.014
617.050 78.572 -91.285
652.400 78.710 -161.250
689.780 78.810 125.188
729.290 78.929 47.923
771.080 79.123 -33.570
815.250 79.406 -119.945
861.950 79.739 148.111
911.330 80.055 50.248
963.540 80.322 -53.596
1018.740 80.557 -163.606
1077.110 80.770 79.540
1138.810 80.869 -44.853
1204.050 80.720 -176.633
1273.030 80.296 44.820
1345.960 79.700 -100.038
1423.070 79.064 108.453
1504.590 78.478 -50.398
1590.790 78.045 142.537
1681.920 77.829 -34.473
1778.280 77.651 136.602
1880.150 77.203 -64.070
1987.870 76.544 84.881
2101.750 75.867 -137.371
2222.150 75.220 -11.914
2349.460 74.570 99.275
2484.060 73.688 -164.214
2626.360 72.585 -82.103
2776.820 71.312 -14.903
2935.900 70.006 36.539
3104.100 68.660 69.537
3281.930 66.956 83.809
3469.940 65.074 78.853
3668.730 62.807 49.530
3878.910 58.713 -2.727
4101.130 52.720 -67.747
4336.070 42.783 -157.151
4584.480 46.100 -103.700
4847.120 54.024 95.814
5124.810 56.593 -87.541
5418.400 57.650 60.560
5728.810 57.799 177.282
6057.010 57.119 -101.071
6404.000 55.635 -51.485
6770.880 54.072 -42.806
7158.770 50.715 -75.375
7568.890 43.805 -151.896
8002.500 28.805 -133.610
8460.950 44.290 80.233
8945.670 47.856 -141.388
9458.160 47.609 -55.189
10000.000 46.763 -22.131
