# Freq(Hz) SPL(dB) Phase (degrees)
10.000 50.852 104.235
10.570 51.650 100.049
11.180 52.438 95.587
11.820 53.200 90.923
12.500 53.942 85.988
13.210 54.650 80.854
13.970 55.338 75.379
14.770 55.990 69.634
15.620 56.608 63.548
16.510 57.178 57.189
17.460 57.705 50.409
18.460 58.171 43.273
19.510 58.567 35.771
20.630 58.884 27.744
21.810 59.098 19.247
23.060 59.183 10.183
24.380 59.099 0.527
25.780 58.788 -9.822
27.260 58.156 -20.885
28.820 57.049 -32.664
30.470 55.164 -45.183
32.220 51.746 -58.306
34.060 43.735 -70.531
36.010 41.851 87.098
38.080 52.759 74.670
40.260 57.636 59.638
42.560 60.744 44.344
45.000 62.956 29.082
47.580 64.601 14.064
50.310 65.863 -0.666
53.190 66.850 -15.074
56.230 67.638 -29.219
59.460 68.280 -43.262
62.860 68.806 -57.149
66.460 69.245 -71.043
70.270 69.616 -85.013
74.300 69.932 -99.124
78.550 70.202 -113.402
83.050 70.435 -127.969
87.810 70.637 -142.873
92.840 70.813 -158.159
98.160 70.967 -173.898
103.780 71.102 169.870
109.730 71.219 153.054
116.020 71.322 135.619
122.660 71.412 117.533
129.690 71.490 98.682
137.120 71.558 79.036
144.970 71.617 58.541
153.280 71.667 37.088
162.060 71.710 14.651
171.340 71.744 -8.851
181.160 71.771 -33.519
191.540 71.791 -59.405
202.510 71.804 -86.584
214.110 71.808 -115.156
226.380 71.804 -145.216
239.350 71.790 -176.834
253.060 71.767 149.900
267.560 71.733 114.875
282.890 71.687 78.005
299.090 71.631 39.211
316.230 71.565 -1.659
334.340 71.492 -44.662
353.500 71.415 -89.980
373.750 71.337 -137.712
395.160 71.263 171.958
417.800 71.194 118.830
441.730 71.128 62.720
467.040 71.057 3.384
493.800 70.970 -59.332
522.090 70.856 -125.539
552.000 70.716 164.691
583.620 70.567 91.272
617.050 70.445 13.984
652.400 70.378 -67.604
689.780 70.373 -154.038
729.290 70.406 114.199
771.080 70.439 16.644
815.250 70.433 -86.913
861.950 70.361 163.272
911.330 70.199 46.963
963.540 69.923 -76.068
1018.740 69.501 154.060
1077.110 68.908 17.439
1138.810 68.217 -125.544
1204.050 67.570 85.263
1273.030 67.230 -72.013
1345.960 67.136 120.264
1423.070 67.037 -59.288
1504.590 66.710 109.179
1590.790 66.038 -93.905
1681.920 64.948 51.861
1778.280 63.397 -172.689
1880.150 61.670 -45.675
1987.870 60.484 71.252
2101.750 59.946 170.653
2222.150 59.082 -110.754
2349.460 57.125 -50.571
2484.060 53.898 -4.872
2626.360 49.324 30.253
2776.820 43.754 61.836
2935.900 39.230 105.500
3104.100 42.559 124.871
3281.930 46.096 84.471
3469.940 47.101 13.990
3668.730 47.703 -80.191
3878.910 47.773 153.978
4101.130 46.411 -2.060
4336.070 43.932 179.455
4584.480 41.682 -33.380
4847.120 37.578 83.292
5124.810 30.923 178.432
5418.400 23.280 -80.994
5728.810 26.895 -27.386
6057.010 29.166 -47.822
6404.000 29.514 -136.626
6770.880 23.054 78.716
7158.770 23.101 -79.106
7568.890 9.434 10.293
8002.500 7.367 -156.556
8460.950 22.482 -146.916
8945.670 25.142 140.846
9458.160 9.536 28.722
10000.000 10.137 105.395
