# Freq(Hz) SPL(dB) Phase (degrees)
10.000 50.800 104.094
10.570 51.597 99.900
11.180 52.386 95.429
11.820 53.147 90.757
12.500 53.890 85.812
13.210 54.597 80.668
13.970 55.285 75.182
14.770 55.937 69.427
15.620 56.556 63.328
16.510 57.126 56.957
17.460 57.652 50.164
18.460 58.119 43.014
19.510 58.514 35.496
20.630 58.831 27.454
21.810 59.045 18.940
23.060 59.130 9.859
24.380 59.046 0.184
25.780 58.734 -10.184
27.260 58.102 -21.269
28.820 56.996 -33.069
30.470 55.110 -45.611
32.220 51.693 -58.759
34.060 43.681 -71.009
36.010 41.797 86.592
38.080 52.705 74.135
40.260 57.582 59.072
42.560 60.690 43.746
45.000 62.901 28.450
47.580 64.546 13.396
50.310 65.808 -1.372
53.190 66.795 -15.820
56.230 67.581 -30.008
59.460 68.223 -44.095
62.860 68.748 -58.030
66.460 69.187 -71.974
70.270 69.557 -85.997
74.300 69.872 -100.163
78.550 70.141 -114.499
83.050 70.374 -129.128
87.810 70.575 -144.098
92.840 70.750 -159.452
98.160 70.902 -175.263
103.780 71.035 168.430
109.730 71.151 151.534
116.020 71.252 134.016
122.660 71.340 115.843
129.690 71.416 96.901
137.120 71.481 77.161
144.970 71.537 56.567
153.280 71.584 35.013
162.060 71.622 12.470
171.340 71.653 -11.139
181.160 71.676 -35.918
191.540 71.692 -61.916
202.510 71.700 -89.210
214.110 71.700 -117.896
226.380 71.692 -148.071
239.350 71.675 -179.804
253.060 71.649 146.815
267.560 71.613 111.673
282.890 71.568 74.687
299.090 71.515 35.772
316.230 71.455 -5.225
334.340 71.391 -48.366
353.500 71.326 -93.838
373.750 71.266 -141.745
395.160 71.213 167.721
417.800 71.170 114.353
441.730 71.136 57.956
467.040 71.101 -1.728
493.800 71.057 -64.873
522.090 70.990 -131.623
552.000 70.896 157.906
583.620 70.783 83.599
617.050 70.670 5.252
652.400 70.575 -77.474
689.780 70.502 -164.992
729.290 70.440 102.315
771.080 70.367 3.998
815.250 70.254 -100.214
861.950 70.067 149.369
911.330 69.767 32.569
963.540 69.329 -90.614
1018.740 68.763 139.945
1077.110 68.130 4.283
1138.810 67.527 -137.813
1204.050 67.150 72.488
1273.030 66.943 -86.263
1345.960 66.828 104.599
1423.070 66.679 -75.627
1504.590 66.417 92.615
1590.790 65.917 -111.318
1681.920 65.037 32.687
1778.280 63.687 165.150
1880.150 61.958 -72.646
1987.870 60.200 39.315
2101.750 58.730 138.519
2222.150 57.427 -139.498
2349.460 55.680 -76.631
2484.060 52.849 -31.322
2626.360 48.563 0.969
2776.820 42.712 28.357
2935.900 37.769 73.683
3104.100 41.638 93.304
3281.930 44.872 52.182
3469.940 46.200 -21.266
3668.730 46.261 -117.258
3878.910 46.486 118.406
4101.130 45.614 -40.028
4336.070 42.761 135.657
4584.480 40.487 -66.566
4847.120 37.782 41.178
5124.810 30.237 124.210
5418.400 20.248 -111.645
5728.810 29.492 -59.944
6057.010 30.915 -98.731
6404.000 30.387 -179.727
6770.880 26.285 51.609
7158.770 19.437 -132.548
7568.890 2.109 -7.890
8002.500 5.010 164.691
8460.950 11.848 123.459
8945.670 6.809 -135.959
9458.160 21.980 17.117
10000.000 16.968 -155.677
