# Freq(Hz) SPL(dB) Phase (degrees)
10.000 50.491 103.242
10.570 51.289 99.000
11.180 52.078 94.477
11.820 52.840 89.750
12.500 53.582 84.747
13.210 54.290 79.543
13.970 54.978 73.992
14.770 55.631 68.168
15.620 56.250 61.997
16.510 56.820 55.549
17.460 57.347 48.675
18.460 57.814 41.440
19.510 58.211 33.833
20.630 58.529 25.695
21.810 58.743 17.080
23.060 58.829 7.892
24.380 58.746 -1.895
25.780 58.436 -12.384
27.260 57.805 -23.595
28.820 56.700 -35.529
30.470 54.816 -48.213
32.220 51.401 -61.510
34.060 43.392 -73.919
36.010 41.510 83.515
38.080 52.420 70.879
40.260 57.300 55.628
42.560 60.411 40.104
45.000 62.626 24.597
47.580 64.275 9.319
50.310 65.542 -5.686
53.190 66.534 -20.384
56.230 67.326 -34.837
59.460 67.974 -49.207
62.860 68.507 -63.440
66.460 68.954 -77.700
70.270 69.333 -92.060
74.300 69.658 -106.583
78.550 69.939 -121.298
83.050 70.183 -136.330
87.810 70.399 -151.727
92.840 70.589 -167.537
98.160 70.758 176.166
103.780 70.910 159.343
109.730 71.048 141.896
116.020 71.172 123.790
122.660 71.286 104.990
129.690 71.391 85.376
137.120 71.489 64.918
144.970 71.581 43.554
153.280 71.667 21.173
162.060 71.750 -2.259
171.340 71.829 -26.825
181.160 71.906 -52.637
191.540 71.980 -79.752
202.510 72.053 -108.255
214.110 72.123 -138.254
226.380 72.192 -169.859
239.350 72.258 156.850
253.060 72.321 121.764
267.560 72.380 84.755
282.890 72.435 45.719
299.090 72.484 4.555
316.230 72.528 -38.915
334.340 72.567 -84.767
353.500 72.600 -133.207
373.750 72.628 175.656
395.160 72.651 121.628
417.800 72.669 64.504
441.730 72.678 4.096
467.040 72.672 -59.867
493.800 72.638 -127.599
522.090 72.560 160.694
552.000 72.415 84.844
583.620 72.186 4.766
617.050 71.869 -79.596
652.400 71.478 -168.333
689.780 71.036 98.370
729.290 70.569 0.225
771.080 70.088 -103.274
815.250 69.584 147.487
861.950 69.034 32.074
911.330 68.409 -89.833
963.540 67.686 141.532
1018.740 66.838 5.994
1077.110 65.848 -136.416
1138.810 64.760 74.612
1204.050 63.759 -80.921
1273.030 63.022 115.616
1345.960 62.607 -57.765
1423.070 62.363 117.131
1504.590 62.133 -80.633
1590.790 61.737 68.492
1681.920 61.095 -155.197
1778.280 60.243 -31.918
1880.150 59.241 77.230
1987.870 57.989 170.555
2101.750 56.228 -113.297
2222.150 53.531 -54.129
2349.460 49.768 -10.454
2484.060 44.738 17.404
2626.360 37.480 28.277
2776.820 22.207 27.868
2935.900 23.405 157.219
3104.100 23.623 156.558
3281.930 29.376 147.167
3469.940 35.955 58.638
3668.730 39.527 -65.815
3878.910 40.440 135.651
4101.130 39.110 -40.832
4336.070 37.302 120.346
4584.480 35.803 -107.088
4847.120 35.239 -10.435
5124.810 31.639 46.653
5418.400 26.828 111.196
5728.810 32.131 117.086
6057.010 33.280 42.235
6404.000 32.544 -71.708
6770.880 28.493 130.097
7158.770 25.228 -68.873
7568.890 15.565 45.436
8002.500 17.696 179.391
8460.950 20.839 -163.057
8945.670 21.659 108.611
9458.160 17.635 7.331
10000.000 12.645 124.181
