# Freq(Hz) SPL(dB) Phase (degrees)
10.000 52.485 108.226
10.570 53.282 104.268
11.180 54.071 100.049
11.820 54.832 95.642
12.500 55.575 90.978
13.210 56.282 86.128
13.970 56.970 80.957
14.770 57.622 75.532
15.620 58.240 69.786
16.510 58.810 63.783
17.460 59.337 57.383
18.460 59.803 50.648
19.510 60.199 43.566
20.630 60.516 35.988
21.810 60.729 27.964
23.060 60.814 19.402
24.380 60.730 10.275
25.780 60.418 0.489
27.260 59.786 -9.980
28.820 58.680 -21.131
30.470 56.794 -32.985
32.220 53.377 -45.403
34.060 45.365 -56.885
36.010 43.481 101.532
38.080 54.389 89.941
40.260 59.266 75.793
42.560 62.374 61.432
45.000 64.585 47.163
47.580 66.231 33.196
50.310 67.494 19.581
53.190 68.482 6.353
56.230 69.270 -6.544
59.460 69.914 -19.257
62.860 70.442 -31.740
66.460 70.884 -44.142
70.270 71.259 -56.528
74.300 71.579 -68.956
78.550 71.856 -81.453
83.050 72.097 -94.128
87.810 72.310 -107.021
92.840 72.499 -120.174
98.160 72.669 -133.648
103.780 72.824 -147.478
109.730 72.967 -161.743
116.020 73.102 -176.474
122.660 73.230 168.300
129.690 73.356 152.480
137.120 73.482 136.036
144.970 73.610 118.915
153.280 73.743 101.019
162.060 73.884 82.312
171.340 74.034 62.715
181.160 74.195 42.124
191.540 74.369 20.473
202.510 74.556 -2.323
214.110 74.755 -26.376
226.380 74.967 -51.794
239.350 75.189 -78.666
253.060 75.416 -107.097
267.560 75.645 -137.206
282.890 75.870 -169.084
299.090 76.086 157.186
316.230 76.286 121.475
334.340 76.464 83.748
353.500 76.616 43.881
373.750 76.737 1.850
395.160 76.828 -42.417
417.800 76.892 -88.978
441.730 76.941 -137.873
467.040 76.994 170.766
493.800 77.078 116.764
522.090 77.218 59.804
552.000 77.419 -0.560
583.620 77.659 -64.770
617.050 77.893 -133.141
652.400 78.076 154.187
689.780 78.177 77.229
729.290 78.192 -3.924
771.080 78.139 -89.302
815.250 78.061 -178.943
861.950 78.008 86.817
911.330 78.019 -12.581
963.540 78.095 -117.796
1018.740 78.205 130.619
1077.110 78.318 12.270
1138.810 78.414 -113.102
1204.050 78.524 113.917
1273.030 78.593 -27.390
1345.960 78.523 -177.538
1423.070 78.227 23.625
1504.590 77.721 -143.610
1590.790 77.067 40.589
1681.920 76.323 -144.030
1778.280 75.598 21.953
1880.150 75.010 177.222
1987.870 74.501 -40.418
2101.750 73.803 88.079
2222.150 72.771 -156.817
2349.460 71.411 -55.040
2484.060 69.764 33.659
2626.360 68.030 108.514
2776.820 66.229 167.360
2935.900 64.224 -151.461
3104.100 61.802 -128.856
3281.930 58.849 -124.923
3469.940 55.684 -147.334
3668.730 50.383 140.892
3878.910 49.194 -5.060
4101.130 53.661 -127.396
4336.070 56.041 113.240
4584.480 57.918 -28.516
4847.120 58.703 157.116
5124.810 57.928 -46.936
5418.400 55.970 79.066
5728.810 52.278 172.508
6057.010 45.266 -126.972
6404.000 28.493 35.697
6770.880 45.279 48.300
7158.770 48.432 -7.036
7568.890 49.740 -102.283
8002.500 49.692 112.697
8460.950 48.166 -81.952
8945.670 44.874 29.790
9458.160 34.484 87.049
10000.000 35.480 -135.321
