# Freq(Hz) SPL(dB) Phase (degrees)
10.000 50.530 103.351
10.570 51.327 99.114
11.180 52.116 94.598
11.820 52.878 89.878
12.500 53.620 84.882
13.210 54.328 79.686
13.970 55.017 74.143
14.770 55.669 68.328
15.620 56.288 62.166
16.510 56.858 55.728
17.460 57.385 48.865
18.460 57.852 41.640
19.510 58.248 34.045
20.630 58.566 25.919
21.810 58.780 17.317
23.060 58.866 8.143
24.380 58.783 -1.631
25.780 58.472 -12.104
27.260 57.841 -23.299
28.820 56.736 -35.216
30.470 54.852 -47.881
32.220 51.436 -61.160
34.060 43.426 -73.549
36.010 41.544 83.907
38.080 52.453 71.294
40.260 57.332 56.067
42.560 60.443 40.568
45.000 62.657 25.088
47.580 64.305 9.839
50.310 65.571 -5.136
53.190 66.562 -19.802
56.230 67.353 -34.221
59.460 68.000 -48.555
62.860 68.531 -62.749
66.460 68.976 -76.969
70.270 69.353 -91.285
74.300 69.676 -105.762
78.550 69.953 -120.428
83.050 70.195 -135.408
87.810 70.407 -150.750
92.840 70.594 -166.501
98.160 70.760 177.266
103.780 70.907 160.510
109.730 71.040 143.135
116.020 71.159 125.106
122.660 71.267 106.388
129.690 71.365 86.864
137.120 71.456 66.501
144.970 71.539 45.241
153.280 71.616 22.970
162.060 71.688 -0.341
171.340 71.756 -24.776
181.160 71.820 -50.446
191.540 71.880 -77.406
202.510 71.937 -105.739
214.110 71.990 -135.553
226.380 72.040 -166.954
239.350 72.085 159.979
253.060 72.124 125.143
267.560 72.159 88.409
282.890 72.186 49.678
299.090 72.206 8.852
316.230 72.219 -34.241
334.340 72.224 -79.674
353.500 72.222 -127.647
373.750 72.213 -178.265
395.160 72.198 128.282
417.800 72.176 71.797
441.730 72.144 12.094
467.040 72.096 -51.090
493.800 72.019 -117.958
522.090 71.896 171.298
552.000 71.706 96.525
583.620 71.434 17.650
617.050 71.077 -65.380
652.400 70.643 -152.648
689.780 70.153 115.708
729.290 69.625 19.524
771.080 69.079 -81.505
815.250 68.538 172.468
861.950 68.040 61.178
911.330 67.655 -55.772
963.540 67.466 -179.161
1018.740 67.504 49.751
1077.110 67.692 -90.456
1138.810 67.858 119.407
1204.050 67.855 -40.405
1273.030 67.658 150.230
1345.960 67.308 -28.708
1423.070 66.833 142.360
1504.590 66.256 -57.348
1590.790 65.574 91.405
1681.920 64.705 -132.152
1778.280 63.586 -8.490
1880.150 62.169 102.149
1987.870 60.435 -160.845
2101.750 58.241 -77.607
2222.150 55.535 -7.800
2349.460 52.555 50.826
2484.060 49.739 95.259
2626.360 46.596 122.530
2776.820 42.442 140.217
2935.900 40.364 163.445
3104.100 43.713 149.646
3281.930 46.431 84.901
3469.940 47.351 -12.039
3668.730 46.448 -138.031
3878.910 43.954 74.775
4101.130 41.261 -91.086
4336.070 39.991 72.743
4584.480 38.711 -165.091
4847.120 33.718 -84.527
5124.810 25.223 -43.192
5418.400 16.273 49.421
5728.810 12.182 -2.607
6057.010 18.603 171.624
6404.000 17.398 34.202
6770.880 21.705 -43.772
7158.770 24.809 60.826
7568.890 20.642 151.557
8002.500 16.094 -98.977
8460.950 25.965 -86.809
8945.670 28.698 -160.708
9458.160 24.613 75.534
10000.000 12.908 -123.092
