# Freq(Hz) SPL(dB) Phase (degrees)
10.000 51.242 105.261
10.570 52.039 101.133
11.180 52.828 96.734
11.820 53.589 92.136
12.500 54.331 87.270
13.210 55.039 82.209
13.970 55.726 76.812
14.770 56.378 71.150
15.620 56.996 65.151
16.510 57.566 58.883
17.460 58.092 52.202
18.460 58.558 45.169
19.510 58.953 37.774
20.630 59.269 29.863
21.810 59.482 21.487
23.060 59.566 12.553
24.380 59.482 3.033
25.780 59.169 -7.171
27.260 58.536 -18.082
28.820 57.429 -29.699
30.470 55.542 -42.047
32.220 52.123 -54.988
34.060 44.110 -67.022
36.010 42.224 90.810
38.080 53.130 78.597
40.260 58.004 63.793
42.560 61.110 48.740
45.000 63.319 33.734
47.580 64.961 18.987
50.310 66.219 4.545
53.190 67.203 -9.558
56.230 67.985 -23.380
59.460 68.622 -37.078
62.860 69.143 -50.601
66.460 69.576 -64.108
70.270 69.941 -77.666
74.300 70.249 -91.337
78.550 70.511 -105.149
83.050 70.735 -119.220
87.810 70.928 -133.595
92.840 71.093 -148.316
98.160 71.236 -163.452
103.780 71.357 -179.040
109.730 71.461 164.833
116.020 71.550 148.136
122.660 71.624 130.838
129.690 71.686 112.835
137.120 71.736 94.099
144.970 71.777 74.581
153.280 71.809 54.180
162.060 71.833 32.876
171.340 71.850 10.594
181.160 71.860 -12.757
191.540 71.866 -37.224
202.510 71.868 -62.873
214.110 71.867 -89.797
226.380 71.865 -118.086
239.350 71.863 -147.805
253.060 71.865 -179.048
267.560 71.871 148.070
282.890 71.887 113.448
299.090 71.915 76.982
316.230 71.960 38.486
334.340 72.023 -2.148
353.500 72.107 -45.155
373.750 72.210 -90.691
395.160 72.326 -138.988
417.800 72.443 169.734
441.730 72.545 115.304
467.040 72.613 57.530
493.800 72.628 -3.681
522.090 72.578 -68.397
552.000 72.458 -136.696
583.620 72.270 151.319
617.050 72.015 75.488
652.400 71.689 -4.367
689.780 71.282 -88.337
729.290 70.799 -176.366
771.080 70.278 91.539
815.250 69.801 -4.664
861.950 69.478 -105.524
911.330 69.393 147.845
963.540 69.537 33.934
1018.740 69.772 -88.619
1077.110 69.865 139.538
1138.810 69.595 -1.018
1204.050 68.896 -149.093
1273.030 67.899 56.344
1345.960 66.798 -104.838
1423.070 65.755 86.546
1504.590 64.876 -90.989
1590.790 64.096 80.638
1681.920 63.215 -119.256
1778.280 62.125 29.912
1880.150 61.088 168.555
1987.870 60.371 -66.676
2101.750 59.528 39.989
2222.150 57.628 128.659
2349.460 54.189 -153.696
2484.060 50.377 -80.877
2626.360 47.138 -23.513
2776.820 41.660 16.704
2935.900 35.033 94.213
3104.100 40.111 161.586
3281.930 44.519 119.271
3469.940 46.261 72.872
3668.730 48.091 -0.337
3878.910 47.872 -109.720
4101.130 45.580 129.399
4336.070 45.531 -20.402
4584.480 42.307 148.080
4847.120 38.063 -57.066
5124.810 30.646 77.341
5418.400 25.636 -119.246
5728.810 32.265 -35.029
6057.010 36.763 -26.839
6404.000 36.167 -61.484
6770.880 35.207 -133.224
7158.770 31.823 96.267
7568.890 23.637 -61.038
8002.500 20.852 -175.776
8460.950 29.567 -67.524
8945.670 29.598 -48.242
9458.160 27.946 -77.750
10000.000 10.494 -156.110
