# Freq(Hz) SPL(dB) Phase (degrees)
10.000 52.929 109.184
10.570 53.726 105.281
11.180 54.515 101.120
11.820 55.277 96.774
12.500 56.019 92.175
13.210 56.727 87.394
13.970 57.416 82.295
14.770 58.068 76.947
15.620 58.686 71.282
16.510 59.257 65.365
17.460 59.784 59.056
18.460 60.251 52.417
19.510 60.647 45.435
20.630 60.965 37.965
21.810 61.179 30.054
23.060 61.265 21.612
24.380 61.182 12.612
25.780 60.871 2.960
27.260 60.240 -7.367
28.820 59.135 -18.368
30.470 57.251 -30.064
32.220 53.836 -42.313
34.060 45.826 -53.619
36.010 43.945 104.985
38.080 54.855 93.594
40.260 59.735 79.654
42.560 62.846 65.515
45.000 65.061 51.480
47.580 66.711 37.761
50.310 67.979 24.409
53.190 68.972 11.457
56.230 69.766 -1.148
59.460 70.417 -13.552
62.860 70.953 -25.709
66.460 71.404 -37.768
70.270 71.789 -49.791
74.300 72.121 -61.837
78.550 72.410 -73.933
83.050 72.666 -86.184
87.810 72.895 -98.634
92.840 73.103 -111.322
98.160 73.295 -124.311
103.780 73.474 -137.635
109.730 73.645 -151.374
116.020 73.810 -165.560
122.660 73.973 179.773
129.690 74.136 164.527
137.120 74.303 148.669
144.970 74.476 132.140
153.280 74.658 114.841
162.060 74.849 96.731
171.340 75.052 77.728
181.160 75.267 57.726
191.540 75.495 36.660
202.510 75.734 14.444
214.110 75.982 -9.024
226.380 76.237 -33.846
239.350 76.495 -60.096
253.060 76.752 -87.859
267.560 77.002 -117.232
282.890 77.240 -148.277
299.090 77.464 178.956
316.230 77.669 144.370
334.340 77.858 107.961
353.500 78.034 69.629
373.750 78.207 29.346
395.160 78.390 -12.998
417.800 78.604 -57.561
441.730 78.868 -104.551
467.040 79.198 -154.325
493.800 79.591 152.735
522.090 80.027 96.217
552.000 80.461 35.785
583.620 80.838 -28.723
617.050 81.112 -97.293
652.400 81.260 -169.810
689.780 81.288 113.855
729.290 81.225 33.773
771.080 81.118 -50.261
815.250 81.004 -138.564
861.950 80.892 128.324
911.330 80.749 29.996
963.540 80.548 -73.643
1018.740 80.317 177.422
1077.110 80.130 62.752
1138.810 79.994 -58.532
1204.050 79.825 172.967
1273.030 79.587 37.437
1345.960 79.361 -105.327
1423.070 79.187 103.799
1504.590 79.032 -56.030
1590.790 78.823 134.458
1681.920 78.454 -44.871
1778.280 77.906 126.553
1880.150 77.375 -71.164
1987.870 77.005 80.369
2101.750 76.741 -140.222
2222.150 76.590 -13.705
2349.460 76.502 98.180
2484.060 76.310 -165.195
2626.360 75.927 -84.104
2776.820 75.347 -18.441
2935.900 74.678 31.264
3104.100 74.014 63.762
3281.930 73.368 77.397
3469.940 72.585 71.017
3668.730 71.761 43.846
3878.910 70.867 -5.910
4101.130 69.780 -80.005
4336.070 68.296 -179.366
4584.480 66.321 56.320
4847.120 64.126 -92.750
5124.810 61.759 88.230
5418.400 58.581 -121.448
5728.810 54.097 -0.508
6057.010 46.909 97.598
6404.000 41.882 -120.199
6770.880 49.626 -79.410
7158.770 53.067 -104.668
7568.890 54.939 179.297
8002.500 55.672 57.558
8460.950 55.668 -113.507
8945.670 54.652 24.136
9458.160 52.907 108.986
10000.000 50.177 137.288
