# Freq(Hz) SPL(dB) Phase (degrees)
10.000 50.778 104.034
10.570 51.575 99.837
11.180 52.364 95.362
11.820 53.126 90.686
12.500 53.868 85.736
13.210 54.576 80.589
13.970 55.264 75.098
14.770 55.916 69.337
15.620 56.534 63.234
16.510 57.105 56.857
17.460 57.631 50.058
18.460 58.098 42.902
19.510 58.494 35.378
20.630 58.811 27.329
21.810 59.025 18.808
23.060 59.110 9.719
24.380 59.026 0.037
25.780 58.715 -10.341
27.260 58.083 -21.434
28.820 56.977 -33.244
30.470 55.092 -45.796
32.220 51.675 -58.955
34.060 43.664 -71.217
36.010 41.781 86.372
38.080 52.689 73.902
40.260 57.566 58.825
42.560 60.675 43.485
45.000 62.887 28.173
47.580 64.533 13.102
50.310 65.796 -1.684
53.190 66.784 -16.150
56.230 67.572 -30.358
59.460 68.215 -44.467
62.860 68.743 -58.425
66.460 69.183 -72.394
70.270 69.556 -86.443
74.300 69.873 -100.638
78.550 70.145 -115.005
83.050 70.380 -129.668
87.810 70.585 -144.673
92.840 70.763 -160.066
98.160 70.920 -175.920
103.780 71.057 167.728
109.730 71.178 150.781
116.020 71.285 133.208
122.660 71.379 114.974
129.690 71.462 95.965
137.120 71.535 76.151
144.970 71.599 55.476
153.280 71.655 33.830
162.060 71.704 11.185
171.340 71.745 -12.540
181.160 71.780 -37.448
191.540 71.808 -63.592
202.510 71.829 -91.051
214.110 71.843 -119.924
226.380 71.848 -150.311
239.350 71.845 177.717
253.060 71.832 144.065
267.560 71.807 108.620
282.890 71.771 71.293
299.090 71.723 32.002
316.230 71.663 -9.408
334.340 71.593 -52.994
353.500 71.514 -98.938
373.750 71.429 -147.333
395.160 71.341 161.645
417.800 71.252 107.807
441.730 71.159 50.976
467.040 71.055 -9.082
493.800 70.929 -72.520
522.090 70.770 -139.444
552.000 70.576 150.094
583.620 70.366 76.058
617.050 70.181 -1.713
652.400 70.067 -83.626
689.780 70.048 -170.284
729.290 70.110 97.706
771.080 70.212 -0.242
815.250 70.308 -104.430
861.950 70.363 144.823
911.330 70.343 27.219
963.540 70.217 -97.566
1018.740 69.930 130.191
1077.110 69.403 -9.582
1138.810 68.597 -156.261
1204.050 67.553 51.096
1273.030 66.625 -107.383
1345.960 66.095 86.421
1423.070 65.981 -90.550
1504.590 66.016 79.458
1590.790 65.893 -123.921
1681.920 65.425 19.585
1778.280 64.503 150.255
1880.150 63.071 -90.853
1987.870 61.265 17.404
2101.750 59.562 114.711
2222.150 58.164 -162.827
2349.460 56.599 -99.436
2484.060 54.254 -53.902
2626.360 50.730 -24.141
2776.820 45.490 -2.648
2935.900 40.475 32.078
3104.100 42.575 52.484
3281.930 46.763 16.437
3469.940 49.512 -59.403
3668.730 50.350 -168.986
3878.910 49.300 58.430
4101.130 48.183 -94.988
4336.070 47.158 77.592
4584.480 44.560 -145.828
4847.120 40.185 -32.716
5124.810 34.094 54.391
5418.400 26.365 151.521
5728.810 31.199 -153.703
6057.010 34.484 166.731
6404.000 33.218 81.062
6770.880 31.139 -52.272
7158.770 26.753 120.028
7568.890 14.134 -81.639
8002.500 10.536 70.976
8460.950 13.077 73.141
8945.670 12.722 83.405
9458.160 20.041 -82.130
10000.000 17.942 -135.705
