# Freq(Hz) SPL(dB) Phase (degrees)
10.000 53.133 109.610
10.570 53.931 105.731
11.180 54.720 101.597
11.820 55.482 97.277
12.500 56.225 92.708
13.210 56.933 87.956
13.970 57.621 82.890
14.770 58.274 77.576
15.620 58.892 71.948
16.510 59.463 66.068
17.460 59.990 59.800
18.460 60.457 53.203
19.510 60.854 46.266
20.630 61.172 38.844
21.810 61.387 30.983
23.060 61.473 22.594
24.380 61.390 13.650
25.780 61.080 4.057
27.260 60.450 -6.206
28.820 59.345 -17.141
30.470 57.462 -28.767
32.220 54.047 -40.942
34.060 46.039 -52.169
36.010 44.158 106.518
38.080 55.069 95.214
40.260 59.950 81.367
42.560 63.063 67.325
45.000 65.280 53.394
47.580 66.932 39.784
50.310 68.201 26.546
53.190 69.197 13.716
56.230 69.994 1.238
59.460 70.647 -11.030
62.860 71.186 -23.046
66.460 71.641 -34.955
70.270 72.030 -46.821
74.300 72.367 -58.702
78.550 72.661 -70.624
83.050 72.924 -82.695
87.810 73.160 -94.955
92.840 73.376 -107.446
98.160 73.576 -120.229
103.780 73.764 -133.341
109.730 73.945 -146.860
116.020 74.122 -160.821
122.660 74.297 -175.257
129.690 74.474 169.733
137.120 74.655 154.113
144.970 74.842 137.824
153.280 75.039 120.767
162.060 75.245 102.900
171.340 75.462 84.139
181.160 75.690 64.382
191.540 75.929 43.563
202.510 76.176 21.601
214.110 76.430 -1.602
226.380 76.687 -26.143
239.350 76.942 -52.085
253.060 77.191 -79.507
267.560 77.430 -108.492
282.890 77.653 -139.091
299.090 77.859 -171.339
316.230 78.047 154.680
334.340 78.221 118.969
353.500 78.390 81.429
373.750 78.568 42.017
395.160 78.776 0.585
417.800 79.032 -43.087
441.730 79.354 -89.281
467.040 79.742 -138.407
493.800 80.179 169.147
522.090 80.624 113.043
552.000 81.024 53.082
583.620 81.325 -10.730
617.050 81.496 -78.229
652.400 81.540 -149.202
689.780 81.495 136.478
729.290 81.422 58.749
771.080 81.377 -22.805
815.250 81.394 -108.697
861.950 81.464 160.417
911.330 81.548 64.030
963.540 81.592 -38.113
1018.740 81.568 -146.019
1077.110 81.498 100.341
1138.810 81.459 -19.318
1204.050 81.485 -145.941
1273.030 81.509 79.630
1345.960 81.453 -62.816
1423.070 81.313 146.584
1504.590 81.067 -12.715
1590.790 80.625 179.170
1681.920 80.011 2.859
1778.280 79.400 178.182
1880.150 78.894 -16.090
1987.870 78.457 139.129
2101.750 78.193 -76.444
2222.150 78.235 55.075
2349.460 78.343 171.576
2484.060 78.343 -86.687
2626.360 78.265 0.137
2776.820 78.129 71.302
2935.900 77.949 125.999
3104.100 77.717 163.315
3281.930 77.441 -177.508
3469.940 77.187 -177.348
3668.730 77.011 162.022
3878.910 76.819 118.829
4101.130 76.471 52.199
4336.070 75.991 -37.806
4584.480 75.602 -152.888
4847.120 75.258 64.361
5124.810 74.836 -107.575
5418.400 74.336 50.339
5728.810 73.770 176.347
6057.010 73.224 -91.141
6404.000 72.717 -35.036
6770.880 72.054 -17.442
7158.770 71.274 -39.416
7568.890 70.470 -103.567
8002.500 69.604 147.413
8460.950 68.628 -8.903
8945.670 67.656 144.959
9458.160 66.507 -114.691
10000.000 65.249 -70.009
