# Freq(Hz) SPL(dB) Phase (degrees)
10.000 53.084 109.508
10.570 53.881 105.623
11.180 54.670 101.482
11.820 55.432 97.157
12.500 56.175 92.580
13.210 56.883 87.821
13.970 57.571 82.747
14.770 58.224 77.425
15.620 58.842 71.788
16.510 59.413 65.899
17.460 59.940 59.621
18.460 60.407 53.014
19.510 60.804 46.067
20.630 61.121 38.633
21.810 61.336 30.760
23.060 61.422 22.358
24.380 61.339 13.401
25.780 61.029 3.794
27.260 60.398 -6.485
28.820 59.293 -17.435
30.470 57.410 -29.078
32.220 53.995 -41.271
34.060 45.986 -52.517
36.010 44.105 106.150
38.080 55.015 94.825
40.260 59.896 80.956
42.560 63.008 66.891
45.000 65.224 52.935
47.580 66.875 39.298
50.310 68.144 26.033
53.190 69.139 13.174
56.230 69.934 0.665
59.460 70.586 -11.635
62.860 71.124 -23.686
66.460 71.578 -35.631
70.270 71.965 -47.534
74.300 72.299 -59.454
78.550 72.592 -71.419
83.050 72.851 -83.533
87.810 73.085 -95.839
92.840 73.297 -108.377
98.160 73.494 -121.209
103.780 73.678 -134.371
109.730 73.855 -147.943
116.020 74.026 -161.957
122.660 74.196 -176.448
129.690 74.367 168.486
137.120 74.541 152.810
144.970 74.722 136.466
153.280 74.910 119.353
162.060 75.108 101.431
171.340 75.317 82.617
181.160 75.537 62.805
191.540 75.766 41.934
202.510 76.004 19.919
214.110 76.249 -3.340
226.380 76.496 -27.937
239.350 76.742 -53.942
253.060 76.982 -81.432
267.560 77.210 -110.495
282.890 77.422 -141.183
299.090 77.615 -173.534
316.230 77.787 152.366
334.340 77.940 116.522
353.500 78.081 78.843
373.750 78.224 39.299
395.160 78.386 -2.235
417.800 78.587 -45.945
441.730 78.848 -92.083
467.040 79.175 -141.041
493.800 79.558 166.791
522.090 79.961 111.051
552.000 80.333 51.506
583.620 80.619 -11.861
617.050 80.787 -78.893
652.400 80.842 -149.374
689.780 80.825 136.820
729.290 80.800 59.602
771.080 80.828 -21.489
815.250 80.938 -107.005
861.950 81.118 162.401
911.330 81.335 66.249
963.540 81.558 -35.757
1018.740 81.781 -143.910
1077.110 81.996 101.271
1138.810 82.149 -20.699
1204.050 82.168 -149.966
1273.030 82.043 73.518
1345.960 81.794 -70.425
1423.070 81.428 137.877
1504.590 80.943 -21.919
1590.790 80.325 169.859
1681.920 79.556 -6.690
1778.280 78.770 168.777
1880.150 78.206 -25.095
1987.870 77.787 129.739
2101.750 77.460 -87.274
2222.150 77.180 43.082
2349.460 76.996 160.261
2484.060 76.887 -97.342
2626.360 76.763 -10.356
2776.820 76.581 60.266
2935.900 76.262 114.052
3104.100 75.845 150.657
3281.930 75.396 169.181
3469.940 74.950 168.007
3668.730 74.388 145.695
3878.910 73.684 102.110
4101.130 72.989 35.915
4336.070 72.258 -55.360
4584.480 71.291 -172.631
4847.120 70.219 44.040
5124.810 69.098 -128.457
5418.400 67.772 28.496
5728.810 66.255 153.289
6057.010 64.312 -116.004
6404.000 62.064 -59.634
6770.880 59.279 -40.082
7158.770 56.030 -57.984
7568.890 51.343 -118.509
8002.500 43.525 161.669
8460.950 43.354 81.295
8945.670 48.357 -94.132
9458.160 51.870 10.995
10000.000 53.198 55.512
