# Freq(Hz) SPL(dB) Phase (degrees)
10.000 50.472 103.187
10.570 51.269 98.942
11.180 52.058 94.415
11.820 52.820 89.685
12.500 53.563 84.678
13.210 54.271 79.470
13.970 54.959 73.915
14.770 55.612 68.087
15.620 56.230 61.911
16.510 56.801 55.459
17.460 57.328 48.579
18.460 57.795 41.339
19.510 58.192 33.726
20.630 58.509 25.582
21.810 58.724 16.960
23.060 58.810 7.765
24.380 58.727 -2.029
25.780 58.417 -12.526
27.260 57.786 -23.745
28.820 56.681 -35.688
30.470 54.798 -48.380
32.220 51.382 -61.687
34.060 43.373 -74.107
36.010 41.492 83.317
38.080 52.402 70.670
40.260 57.282 55.407
42.560 60.393 39.869
45.000 62.608 24.349
47.580 64.258 9.057
50.310 65.525 -5.963
53.190 66.517 -20.677
56.230 67.310 -35.147
59.460 67.958 -49.535
62.860 68.491 -63.786
66.460 68.939 -78.067
70.270 69.318 -92.447
74.300 69.644 -106.993
78.550 69.924 -121.732
83.050 70.170 -136.789
87.810 70.386 -152.213
92.840 70.577 -168.051
98.160 70.747 175.622
103.780 70.900 158.767
109.730 71.039 141.286
116.020 71.165 123.145
122.660 71.280 104.306
129.690 71.387 84.652
137.120 71.486 64.151
144.970 71.580 42.742
153.280 71.669 20.312
162.060 71.754 -3.170
171.340 71.836 -27.791
181.160 71.916 -53.661
191.540 71.994 -80.838
202.510 72.070 -109.407
214.110 72.145 -139.477
226.380 72.219 -171.157
239.350 72.290 155.470
253.060 72.360 120.297
267.560 72.426 83.194
282.890 72.489 44.056
299.090 72.548 2.781
316.230 72.602 -40.810
334.340 72.652 -86.794
353.500 72.698 -135.380
373.750 72.741 173.323
395.160 72.781 119.118
417.800 72.817 61.800
441.730 72.847 1.176
467.040 72.865 -63.026
493.800 72.859 -131.025
522.090 72.813 156.963
552.000 72.706 80.755
583.620 72.522 0.242
617.050 72.255 -84.655
652.400 71.915 -174.056
689.780 71.522 91.838
729.290 71.098 -7.267
771.080 70.650 -111.878
815.250 70.168 137.609
861.950 69.627 20.733
911.330 68.995 -102.882
963.540 68.241 126.443
1018.740 67.316 -11.606
1077.110 66.154 -157.131
1138.810 64.709 50.291
1204.050 63.061 -108.646
1273.030 61.401 85.997
1345.960 59.955 -86.662
1423.070 58.818 91.237
1504.590 57.937 -102.376
1590.790 57.067 51.062
1681.920 55.988 -168.049
1778.280 54.780 -38.952
1880.150 53.698 76.816
1987.870 52.579 176.216
2101.750 50.947 -102.049
2222.150 48.188 -35.609
2349.460 44.639 20.130
2484.060 40.805 64.889
2626.360 36.392 96.586
2776.820 31.691 129.338
2935.900 31.404 146.849
3104.100 30.873 138.876
3281.930 32.613 110.554
3469.940 37.601 40.715
3668.730 42.078 -77.388
3878.910 44.249 125.134
4101.130 44.723 -59.129
4336.070 44.279 82.847
4584.480 42.196 -170.045
4847.120 37.378 -91.392
5124.810 29.477 -36.139
5418.400 23.239 45.263
5728.810 25.134 57.706
6057.010 25.646 14.417
6404.000 28.920 -82.580
6770.880 26.770 109.309
7158.770 22.490 -98.792
7568.890 14.677 44.349
8002.500 11.372 161.909
8460.950 18.147 163.189
8945.670 25.647 103.515
9458.160 21.897 -55.536
10000.000 11.288 85.516
