# Freq(Hz) SPL(dB) Phase (degrees)
10.000 53.041 109.420
10.570 53.839 105.530
11.180 54.627 101.384
11.820 55.389 97.052
12.500 56.132 92.470
13.210 56.840 87.705
13.970 57.528 82.624
14.770 58.181 77.295
15.620 58.799 71.650
16.510 59.370 65.754
17.460 59.897 59.468
18.460 60.364 52.851
19.510 60.760 45.895
20.630 61.078 38.451
21.810 61.292 30.568
23.060 61.378 22.155
24.380 61.295 13.186
25.780 60.985 3.567
27.260 60.354 -6.725
28.820 59.249 -17.689
30.470 57.365 -29.346
32.220 53.950 -41.555
34.060 45.941 -52.817
36.010 44.059 105.833
38.080 54.970 94.489
40.260 59.850 80.601
42.560 62.962 66.516
45.000 65.177 52.538
47.580 66.828 38.879
50.310 68.096 25.590
53.190 69.090 12.705
56.230 69.885 0.171
59.460 70.536 -12.158
62.860 71.073 -24.238
66.460 71.525 -36.214
70.270 71.910 -48.150
74.300 72.244 -60.105
78.550 72.534 -72.105
83.050 72.792 -84.257
87.810 73.023 -96.602
92.840 73.233 -109.182
98.160 73.427 -122.057
103.780 73.608 -135.263
109.730 73.781 -148.881
116.020 73.949 -162.942
122.660 74.115 -177.480
129.690 74.281 167.405
137.120 74.451 151.680
144.970 74.626 135.287
153.280 74.809 118.125
162.060 75.001 100.154
171.340 75.204 81.291
181.160 75.417 61.431
191.540 75.640 40.512
202.510 75.872 18.448
214.110 76.111 -4.860
226.380 76.352 -29.510
239.350 76.592 -55.570
253.060 76.826 -83.122
267.560 77.049 -112.255
282.890 77.255 -143.023
299.090 77.440 -175.469
316.230 77.604 150.323
334.340 77.745 114.356
353.500 77.871 76.542
373.750 77.992 36.859
395.160 78.124 -4.799
417.800 78.290 -48.597
441.730 78.509 -94.761
467.040 78.793 -143.663
493.800 79.138 164.309
522.090 79.513 108.771
552.000 79.868 49.460
583.620 80.150 -13.669
617.050 80.325 -80.478
652.400 80.395 -150.759
689.780 80.402 135.607
729.290 80.412 58.520
771.080 80.484 -22.507
815.250 80.643 -108.049
861.950 80.873 161.243
911.330 81.137 64.925
963.540 81.413 -37.279
1018.740 81.707 -145.748
1077.110 81.997 98.813
1138.810 82.187 -24.131
1204.050 82.171 -154.435
1273.030 81.954 68.279
1345.960 81.598 -76.085
1423.070 81.128 132.079
1504.590 80.561 -27.477
1590.790 79.952 164.790
1681.920 79.294 -11.722
1778.280 78.622 162.949
1880.150 78.098 -32.137
1987.870 77.677 121.293
2101.750 77.254 -97.486
2222.150 76.734 31.450
2349.460 76.274 148.385
2484.060 76.037 -109.042
2626.360 75.822 -22.441
2776.820 75.524 47.662
2935.900 75.090 100.932
3104.100 74.598 136.737
3281.930 74.011 153.426
3469.940 73.200 150.213
3668.730 72.143 127.260
3878.910 71.024 83.560
4101.130 69.894 16.809
4336.070 68.544 -74.349
4584.480 67.143 169.981
4847.120 65.735 25.811
5124.810 63.772 -149.077
5418.400 61.085 6.939
5728.810 57.513 132.404
6057.010 52.545 -130.184
6404.000 44.127 -51.639
6770.880 44.817 58.554
7158.770 49.629 58.958
7568.890 53.199 -0.927
8002.500 54.847 -111.279
8460.950 55.255 90.642
8945.670 55.301 -120.134
9458.160 53.995 -24.327
10000.000 52.160 17.159
