# Freq(Hz) SPL(dB) Phase (degrees)
10.000 51.115 104.931
10.570 51.912 100.785
11.180 52.700 96.365
11.820 53.462 91.746
12.500 54.204 86.857
13.210 54.912 81.773
13.970 55.600 76.351
14.770 56.252 70.662
15.620 56.870 64.635
16.510 57.439 58.338
17.460 57.966 51.625
18.460 58.432 44.559
19.510 58.827 37.129
20.630 59.144 29.181
21.810 59.357 20.766
23.060 59.442 11.790
24.380 59.357 2.226
25.780 59.045 -8.025
27.260 58.413 -18.985
28.820 57.306 -30.654
30.470 55.419 -43.057
32.220 52.001 -56.057
34.060 43.989 -68.153
36.010 42.104 89.613
38.080 53.010 77.331
40.260 57.886 62.452
42.560 60.993 47.321
45.000 63.202 32.232
47.580 64.846 17.397
50.310 66.106 2.861
53.190 67.090 -11.341
56.230 67.875 -25.269
59.460 68.514 -39.081
62.860 69.037 -52.723
66.460 69.472 -66.357
70.270 69.839 -80.051
74.300 70.150 -93.868
78.550 70.415 -107.835
83.050 70.643 -122.071
87.810 70.840 -136.622
92.840 71.009 -151.533
98.160 71.156 -166.873
103.780 71.282 177.321
109.730 71.391 160.959
116.020 71.485 144.009
122.660 71.564 126.439
129.690 71.632 108.141
137.120 71.688 89.088
144.970 71.735 69.225
153.280 71.772 48.452
162.060 71.800 26.743
171.340 71.821 4.023
181.160 71.834 -19.805
191.540 71.840 -44.788
202.510 71.838 -70.997
214.110 71.830 -98.523
226.380 71.815 -127.457
239.350 71.794 -157.864
253.060 71.767 170.170
267.560 71.735 136.537
282.890 71.700 101.153
299.090 71.665 63.932
316.230 71.633 24.714
334.340 71.609 -16.581
353.500 71.597 -60.162
373.750 71.601 -106.163
395.160 71.620 -154.809
417.800 71.650 153.673
441.730 71.680 99.088
467.040 71.692 41.210
493.800 71.670 -20.076
522.090 71.600 -84.844
552.000 71.479 -153.149
583.620 71.318 134.927
617.050 71.135 59.214
652.400 70.946 -20.563
689.780 70.757 -104.703
729.290 70.569 166.546
771.080 70.386 72.862
815.250 70.222 -25.961
861.950 70.103 -130.331
911.330 70.050 119.198
963.540 70.069 1.939
1018.740 70.143 -122.944
1077.110 70.189 103.588
1138.810 70.036 -39.096
1204.050 69.536 169.555
1273.030 68.584 10.019
1345.960 67.191 -156.507
1423.070 65.537 31.505
1504.590 64.173 -145.838
1590.790 63.573 27.026
1681.920 63.371 -175.168
1778.280 62.879 -33.560
1880.150 61.565 93.757
1987.870 59.343 -148.767
2101.750 57.105 -37.398
2222.150 56.003 59.165
2349.460 54.559 131.816
2484.060 51.467 -174.345
2626.360 46.301 -130.957
2776.820 39.832 -87.787
2935.900 32.826 -28.150
3104.100 33.928 30.173
3281.930 40.462 13.549
3469.940 44.724 -41.536
3668.730 45.399 -138.831
3878.910 43.052 113.815
4101.130 42.396 -16.956
4336.070 38.705 169.806
4584.480 32.554 4.859
4847.120 29.850 156.251
5124.810 23.218 -78.650
5418.400 15.433 104.101
5728.810 25.761 -178.734
6057.010 25.925 -150.692
6404.000 32.494 147.320
6770.880 30.389 66.589
7158.770 28.132 -78.665
7568.890 21.244 113.823
8002.500 22.694 -20.844
8460.950 27.847 77.676
8945.670 30.386 59.606
9458.160 28.797 7.218
10000.000 19.675 -114.543
