# Freq(Hz) SPL(dB) Phase (degrees)
10.000 53.115 109.572
10.570 53.912 105.690
11.180 54.701 101.553
11.820 55.463 97.232
12.500 56.206 92.660
13.210 56.914 87.905
13.970 57.602 82.836
14.770 58.255 77.519
15.620 58.873 71.887
16.510 59.444 66.004
17.460 59.971 59.732
18.460 60.438 53.132
19.510 60.835 46.191
20.630 61.153 38.764
21.810 61.367 30.899
23.060 61.453 22.505
24.380 61.371 13.556
25.780 61.061 3.958
27.260 60.430 -6.311
28.820 59.326 -17.252
30.470 57.442 -28.884
32.220 54.027 -41.066
34.060 46.018 -52.301
36.010 44.138 106.379
38.080 55.049 95.067
40.260 59.929 81.212
42.560 63.042 67.161
45.000 65.259 53.220
47.580 66.910 39.600
50.310 68.179 26.353
53.190 69.175 13.511
56.230 69.971 1.022
59.460 70.624 -11.259
62.860 71.163 -23.288
66.460 71.617 -35.210
70.270 72.005 -47.090
74.300 72.341 -58.986
78.550 72.634 -70.924
83.050 72.896 -83.011
87.810 73.131 -95.289
92.840 73.345 -107.797
98.160 73.544 -120.599
103.780 73.730 -133.729
109.730 73.909 -147.269
116.020 74.084 -161.249
122.660 74.257 -175.706
129.690 74.431 169.263
137.120 74.610 153.622
144.970 74.794 137.313
153.280 74.987 120.235
162.060 75.190 102.347
171.340 75.404 83.567
181.160 75.628 63.789
191.540 75.863 42.951
202.510 76.106 20.970
214.110 76.356 -2.254
226.380 76.608 -26.815
239.350 76.859 -52.780
253.060 77.104 -80.226
267.560 77.338 -109.240
282.890 77.556 -139.870
299.090 77.755 -172.156
316.230 77.935 153.820
334.340 78.100 118.062
353.500 78.256 80.474
373.750 78.418 41.019
395.160 78.605 -0.441
417.800 78.837 -44.111
441.730 79.132 -90.264
467.040 79.494 -139.301
493.800 79.908 168.389
522.090 80.334 112.457
552.000 80.720 52.693
583.620 81.013 -10.904
617.050 81.179 -78.169
652.400 81.225 -148.884
689.780 81.190 137.076
729.290 81.138 59.638
771.080 81.126 -21.635
815.250 81.187 -107.275
861.950 81.313 162.065
911.330 81.467 65.883
963.540 81.609 -36.104
1018.740 81.721 -144.055
1077.110 81.812 101.765
1138.810 81.890 -19.062
1204.050 81.928 -147.075
1273.030 81.889 77.361
1345.960 81.742 -65.951
1423.070 81.487 142.755
1504.590 81.110 -16.978
1590.790 80.545 174.654
1681.920 79.786 -1.819
1778.280 79.018 173.852
1880.150 78.445 -19.750
1987.870 78.004 135.838
2101.750 77.742 -79.837
2222.150 77.702 51.484
2349.460 77.741 168.276
2484.060 77.709 -89.804
2626.360 77.619 -2.880
2776.820 77.469 68.069
2935.900 77.226 122.387
3104.100 76.889 159.547
3281.930 76.540 178.971
3469.940 76.297 179.076
3668.730 76.086 157.460
3878.910 75.702 113.268
4101.130 75.133 46.644
4336.070 74.539 -43.714
4584.480 73.937 -159.770
4847.120 73.221 57.176
5124.810 72.525 -114.328
5418.400 71.772 43.329
5728.810 70.880 169.073
6057.010 69.921 -99.127
6404.000 68.803 -42.926
6770.880 67.735 -24.750
7158.770 66.379 -47.321
7568.890 64.740 -111.657
8002.500 62.875 139.919
8460.950 60.828 -15.805
8945.670 58.271 137.012
9458.160 54.643 -121.986
10000.000 49.738 -67.394
