# Freq(Hz) SPL(dB) Phase (degrees)
10.000 51.567 106.080
10.570 52.365 102.000
11.180 53.153 97.650
11.820 53.914 93.105
12.500 54.657 88.295
13.210 55.364 83.292
13.970 56.051 77.958
14.770 56.703 72.361
15.620 57.321 66.432
16.510 57.891 60.238
17.460 58.417 53.634
18.460 58.882 46.683
19.510 59.278 39.375
20.630 59.594 31.556
21.810 59.807 23.278
23.060 59.890 14.446
24.380 59.806 5.035
25.780 59.493 -5.054
27.260 58.860 -15.842
28.820 57.752 -27.330
30.470 55.865 -39.541
32.220 52.446 -52.338
34.060 44.432 -64.219
36.010 42.546 93.775
38.080 53.451 81.735
40.260 58.325 67.112
42.560 61.431 52.251
45.000 63.639 37.450
47.580 65.280 22.919
50.310 66.538 8.707
53.190 67.521 -5.153
56.230 68.303 -18.718
59.460 68.939 -32.142
62.860 69.459 -45.375
66.460 69.892 -58.573
70.270 70.255 -71.803
74.300 70.563 -85.126
78.550 70.824 -98.569
83.050 71.048 -112.246
87.810 71.241 -126.201
92.840 71.406 -140.477
98.160 71.549 -155.139
103.780 71.671 -170.222
109.730 71.777 174.190
116.020 71.868 158.066
122.660 71.945 141.379
129.690 72.012 124.027
137.120 72.070 105.984
144.970 72.120 87.202
153.280 72.163 67.585
162.060 72.203 47.110
171.340 72.239 25.707
181.160 72.275 3.282
191.540 72.312 -20.213
202.510 72.351 -44.849
214.110 72.396 -70.722
226.380 72.448 -97.931
239.350 72.510 -126.556
253.060 72.584 -156.702
267.560 72.672 171.497
282.890 72.776 137.922
299.090 72.896 102.451
316.230 73.030 64.886
334.340 73.177 25.114
353.500 73.331 -17.090
373.750 73.483 -61.858
395.160 73.621 -109.375
417.800 73.728 -159.801
441.730 73.788 146.768
467.040 73.782 90.219
493.800 73.700 30.535
522.090 73.537 -32.289
552.000 73.301 -98.287
583.620 73.009 -167.535
617.050 72.676 119.821
652.400 72.321 43.604
689.780 71.965 -36.345
729.290 71.651 -120.228
771.080 71.429 151.416
815.250 71.315 57.895
861.950 71.267 -41.572
911.330 71.203 -147.415
963.540 71.063 100.351
1018.740 70.846 -18.138
1077.110 70.614 -143.049
1138.810 70.432 85.037
1204.050 70.302 -55.065
1273.030 70.123 155.723
1345.960 69.733 -2.850
1423.070 69.040 -170.298
1504.590 68.056 14.213
1590.790 67.017 -168.478
1681.920 66.395 -0.291
1778.280 66.039 153.790
1880.150 65.301 -66.648
1987.870 64.061 60.471
2101.750 62.467 175.480
2222.150 60.552 -82.795
2349.460 58.058 4.842
2484.060 54.881 80.701
2626.360 51.358 142.978
2776.820 45.655 -170.447
2935.900 36.115 -80.400
3104.100 45.188 -33.271
3281.930 48.910 -25.108
3469.940 51.399 -62.291
3668.730 53.004 -128.105
3878.910 52.658 139.747
4101.130 51.848 29.180
4336.070 50.865 -110.977
4584.480 48.933 78.204
4847.120 44.790 -121.306
5124.810 38.364 15.592
5418.400 26.585 -144.467
5728.810 38.520 -38.278
6057.010 42.879 -14.005
6404.000 43.396 -37.307
6770.880 42.322 -93.429
7158.770 39.036 159.515
7568.890 30.037 18.048
8002.500 27.779 -49.174
8460.950 35.716 69.141
8945.670 36.845 118.705
9458.160 34.116 109.856
10000.000 24.495 41.894
