# Freq(Hz) SPL(dB) Phase (degrees)
10.000 53.086 109.512
10.570 53.884 105.627
11.180 54.673 101.487
11.820 55.435 97.162
12.500 56.177 92.585
13.210 56.885 87.827
13.970 57.574 82.753
14.770 58.226 77.432
15.620 58.845 71.795
16.510 59.415 65.906
17.460 59.943 59.629
18.460 60.410 53.022
19.510 60.806 46.075
20.630 61.124 38.642
21.810 61.339 30.769
23.060 61.425 22.368
24.380 61.342 13.412
25.780 61.032 3.805
27.260 60.402 -6.473
28.820 59.297 -17.423
30.470 57.414 -29.064
32.220 53.999 -41.257
34.060 45.990 -52.502
36.010 44.110 106.166
38.080 55.021 94.842
40.260 59.902 80.974
42.560 63.015 66.910
45.000 65.231 52.955
47.580 66.883 39.320
50.310 68.152 26.056
53.190 69.147 13.198
56.230 69.944 0.691
59.460 70.597 -11.608
62.860 71.136 -23.656
66.460 71.590 -35.599
70.270 71.979 -47.500
74.300 72.315 -59.419
78.550 72.609 -71.381
83.050 72.870 -83.492
87.810 73.106 -95.796
92.840 73.321 -108.331
98.160 73.520 -121.161
103.780 73.708 -134.320
109.730 73.888 -147.889
116.020 74.063 -161.901
122.660 74.237 -176.389
129.690 74.413 168.547
137.120 74.593 152.872
144.970 74.780 136.529
153.280 74.976 119.416
162.060 75.182 101.492
171.340 75.400 82.674
181.160 75.630 62.858
191.540 75.871 41.978
202.510 76.121 19.953
214.110 76.380 -3.318
226.380 76.643 -27.931
239.350 76.906 -53.955
253.060 77.166 -81.467
267.560 77.416 -110.556
282.890 77.654 -141.274
299.090 77.876 -173.661
316.230 78.082 152.195
334.340 78.275 116.294
353.500 78.465 78.534
373.750 78.665 38.869
395.160 78.892 -2.847
417.800 79.169 -46.827
441.730 79.510 -93.349
467.040 79.920 -142.818
493.800 80.382 164.375
522.090 80.861 107.871
552.000 81.304 47.432
583.620 81.657 -16.986
617.050 81.882 -85.277
652.400 81.972 -157.272
689.780 81.949 127.155
729.290 81.859 48.003
771.080 81.752 -35.049
815.250 81.663 -122.442
861.950 81.582 145.198
911.330 81.461 47.400
963.540 81.237 -55.994
1018.740 80.867 -164.828
1077.110 80.366 81.273
1138.810 79.854 -37.416
1204.050 79.500 -161.608
1273.030 79.354 67.292
1345.960 79.360 -71.739
1423.070 79.474 140.677
1504.590 79.660 -16.136
1590.790 79.852 177.073
1681.920 79.958 0.160
1778.280 80.020 173.102
1880.150 80.075 -25.226
1987.870 79.960 124.412
2101.750 79.634 -97.367
2222.150 79.187 29.256
2349.460 78.724 143.856
2484.060 78.354 -114.721
2626.360 78.121 -27.863
2776.820 77.979 42.850
2935.900 77.848 96.351
3104.100 77.645 131.881
3281.930 77.360 149.124
3469.940 77.096 147.035
3668.730 76.844 123.805
3878.910 76.485 78.310
4101.130 76.001 9.951
4336.070 75.439 -81.887
4584.480 74.975 161.068
4847.120 74.635 16.423
5124.810 74.238 -158.239
5418.400 73.689 -3.451
5728.810 73.083 119.532
6057.010 72.469 -151.766
6404.000 71.727 -99.014
6770.880 71.000 -84.117
7158.770 70.184 -110.212
7568.890 69.206 -178.692
8002.500 68.168 68.081
8460.950 67.000 -92.924
8945.670 65.614 56.002
9458.160 64.158 151.920
10000.000 62.534 -168.023
