# Freq(Hz) SPL(dB) Phase (degrees)
10.000 50.599 103.543
10.570 51.397 99.318
11.180 52.185 94.813
11.820 52.947 90.106
12.500 53.690 85.123
13.210 54.398 79.940
13.970 55.086 74.412
14.770 55.738 68.613
15.620 56.357 62.467
16.510 56.927 56.047
17.460 57.454 49.201
18.460 57.921 41.996
19.510 58.317 34.421
20.630 58.635 26.317
21.810 58.849 17.737
23.060 58.934 8.587
24.380 58.851 -1.161
25.780 58.541 -11.607
27.260 57.910 -22.773
28.820 56.804 -34.661
30.470 54.920 -47.294
32.220 51.504 -60.539
34.060 43.494 -72.892
36.010 41.611 84.601
38.080 52.521 72.028
40.260 57.400 56.844
42.560 60.510 41.388
45.000 62.724 25.956
47.580 64.372 10.756
50.310 65.637 -4.165
53.190 66.627 -18.776
56.230 67.418 -33.136
59.460 68.064 -47.407
62.860 68.595 -61.536
66.460 69.039 -75.686
70.270 69.416 -89.928
74.300 69.737 -104.327
78.550 70.014 -118.910
83.050 70.255 -133.803
87.810 70.466 -149.052
92.840 70.652 -164.705
98.160 70.816 179.165
103.780 70.962 162.519
109.730 71.093 145.260
116.020 71.210 127.353
122.660 71.316 108.765
129.690 71.412 89.377
137.120 71.500 69.160
144.970 71.580 48.052
153.280 71.654 25.944
162.060 71.722 2.804
171.340 71.786 -21.451
181.160 71.845 -46.929
191.540 71.899 -73.688
202.510 71.950 -101.808
214.110 71.996 -131.396
226.380 72.036 -162.557
239.350 72.071 164.630
253.060 72.100 130.063
267.560 72.120 93.618
282.890 72.131 55.197
299.090 72.133 14.705
316.230 72.124 -28.025
334.340 72.104 -73.062
353.500 72.073 -120.600
373.750 72.032 -170.739
395.160 71.980 136.339
417.800 71.917 80.442
441.730 71.839 21.396
467.040 71.737 -41.050
493.800 71.598 -107.071
522.090 71.402 -176.814
552.000 71.129 109.646
583.620 70.774 32.336
617.050 70.354 -48.697
652.400 69.914 -133.514
689.780 69.516 137.614
729.290 69.210 44.200
771.080 69.015 -54.485
815.250 68.921 -159.009
861.950 68.905 90.061
911.330 68.946 -27.764
963.540 69.028 -153.004
1018.740 69.123 73.739
1077.110 69.167 -68.201
1138.810 69.062 140.926
1204.050 68.742 -18.946
1273.030 68.207 172.408
1345.960 67.489 -5.219
1423.070 66.611 167.943
1504.590 65.644 -28.600
1590.790 64.587 124.280
1681.920 63.411 -94.068
1778.280 62.074 36.489
1880.150 60.791 156.095
1987.870 59.859 -97.662
2101.750 59.132 -8.415
2222.150 58.086 61.213
2349.460 56.193 113.246
2484.060 53.355 149.801
2626.360 49.402 172.317
2776.820 43.862 -171.497
2935.900 39.869 -140.570
3104.100 42.309 -140.171
3281.930 45.463 172.124
3469.940 47.988 90.739
3668.730 49.633 -27.234
3878.910 49.598 -176.135
4101.130 48.393 6.480
4336.070 45.356 159.885
4584.480 41.227 -67.059
4847.120 38.325 40.166
5124.810 32.192 102.840
5418.400 26.010 -167.199
5728.810 30.176 -149.523
6057.010 31.312 167.759
6404.000 32.824 58.699
6770.880 29.965 -94.097
7158.770 22.599 69.162
7568.890 8.731 -117.897
8002.500 13.018 38.584
8460.950 23.124 71.965
8945.670 24.771 -38.247
9458.160 7.445 152.388
10000.000 5.146 79.728
