# Freq(Hz) SPL(dB) Phase (degrees)
10.000 51.427 105.730
10.570 52.224 101.630
11.180 53.013 97.259
11.820 53.774 92.691
12.500 54.516 87.857
13.210 55.224 82.830
13.970 55.911 77.468
14.770 56.563 71.844
15.620 57.181 65.885
16.510 57.751 59.659
17.460 58.277 53.022
18.460 58.743 46.036
19.510 59.138 38.691
20.630 59.454 30.833
21.810 59.667 22.512
23.060 59.751 13.637
24.380 59.667 4.179
25.780 59.354 -5.959
27.260 58.721 -16.800
28.820 57.613 -28.344
30.470 55.726 -40.613
32.220 52.308 -53.472
34.060 44.295 -65.419
36.010 42.409 92.505
38.080 53.314 80.390
40.260 58.189 65.689
42.560 61.295 50.745
45.000 63.503 35.855
47.580 65.145 21.230
50.310 66.404 6.918
53.190 67.387 -7.047
56.230 68.169 -20.724
59.460 68.806 -34.268
62.860 69.327 -47.629
66.460 69.761 -60.963
70.270 70.125 -74.338
74.300 70.433 -87.815
78.550 70.695 -101.422
83.050 70.920 -115.276
87.810 71.113 -129.420
92.840 71.279 -143.897
98.160 71.422 -158.774
103.780 71.545 -174.088
109.730 71.650 170.075
116.020 71.741 153.684
122.660 71.817 136.711
129.690 71.882 119.051
137.120 71.936 100.677
144.970 71.981 81.540
153.280 72.018 61.542
162.060 72.048 40.659
171.340 72.072 18.820
181.160 72.091 -4.069
191.540 72.107 -28.055
202.510 72.120 -53.207
214.110 72.131 -79.616
226.380 72.142 -107.375
239.350 72.155 -136.554
253.060 72.171 -167.245
267.560 72.192 160.430
282.890 72.220 126.373
299.090 72.258 90.474
316.230 72.308 52.551
334.340 72.370 12.498
353.500 72.442 -29.911
373.750 72.522 -74.822
395.160 72.598 -122.441
417.800 72.657 -172.957
441.730 72.680 133.504
467.040 72.646 76.811
493.800 72.539 16.951
522.090 72.352 -46.050
552.000 72.095 -112.157
583.620 71.794 178.628
617.050 71.492 106.189
652.400 71.240 30.230
689.780 71.082 -49.721
729.290 71.041 -134.258
771.080 71.108 135.879
815.250 71.253 40.095
861.950 71.419 -62.231
911.330 71.532 -171.576
963.540 71.506 71.759
1018.740 71.250 -52.406
1077.110 70.638 176.004
1138.810 69.544 37.985
1204.050 68.076 -104.564
1273.030 66.649 109.159
1345.960 65.733 -43.405
1423.070 65.246 153.595
1504.590 64.728 -21.286
1590.790 63.917 152.985
1681.920 62.857 -41.954
1778.280 61.928 113.941
1880.150 61.379 -103.117
1987.870 60.682 23.500
2101.750 59.428 136.142
2222.150 57.931 -125.292
2349.460 55.887 -44.421
2484.060 52.451 19.210
2626.360 46.649 71.583
2776.820 38.187 127.494
2935.900 30.732 -116.081
3104.100 37.325 -44.137
3281.930 44.128 -78.690
3469.940 47.082 -125.154
3668.730 47.132 163.899
3878.910 46.227 72.694
4101.130 44.596 -32.498
4336.070 44.998 -173.234
4584.480 41.229 11.840
4847.120 39.131 178.055
5124.810 31.754 -49.653
5418.400 24.669 137.303
5728.810 33.223 -123.348
6057.010 35.539 -89.266
6404.000 37.704 -117.031
6770.880 37.351 -179.522
7158.770 32.630 65.101
7568.890 25.153 -59.624
8002.500 21.690 -165.402
8460.950 28.771 -36.444
8945.670 30.507 -2.070
9458.160 24.509 -4.093
10000.000 15.455 -122.459
