# Freq(Hz) SPL(dB) Phase (degrees)
10.000 50.730 103.906
10.570 51.528 99.702
11.180 52.317 95.219
11.820 53.078 90.535
12.500 53.821 85.577
13.210 54.529 80.420
13.970 55.216 74.920
14.770 55.869 69.149
15.620 56.487 63.035
16.510 57.057 56.646
17.460 57.584 49.835
18.460 58.050 42.667
19.510 58.446 35.130
20.630 58.763 27.066
21.810 58.977 18.530
23.060 59.062 9.425
24.380 58.978 -0.274
25.780 58.667 -10.669
27.260 58.035 -21.782
28.820 56.929 -33.612
30.470 55.044 -46.185
32.220 51.627 -59.365
34.060 43.616 -71.651
36.010 41.732 85.913
38.080 52.640 73.417
40.260 57.517 58.313
42.560 60.626 42.942
45.000 62.837 27.600
47.580 64.483 12.496
50.310 65.746 -2.324
53.190 66.734 -16.827
56.230 67.521 -31.073
59.460 68.164 -45.223
62.860 68.691 -59.224
66.460 69.131 -73.238
70.270 69.503 -87.335
74.300 69.819 -101.580
78.550 70.090 -116.000
83.050 70.325 -130.718
87.810 70.528 -145.782
92.840 70.706 -161.238
98.160 70.861 -177.156
103.780 70.997 166.423
109.730 71.116 149.405
116.020 71.221 131.756
122.660 71.313 113.444
129.690 71.394 94.353
137.120 71.464 74.453
144.970 71.525 53.689
153.280 71.578 31.951
162.060 71.624 9.211
171.340 71.662 -14.611
181.160 71.693 -39.619
191.540 71.717 -65.866
202.510 71.734 -93.427
214.110 71.744 -122.405
226.380 71.745 -152.896
239.350 71.738 175.028
253.060 71.722 141.272
267.560 71.697 105.723
282.890 71.660 68.291
299.090 71.614 28.892
316.230 71.559 -12.630
334.340 71.496 -56.336
353.500 71.428 -102.413
373.750 71.358 -150.957
395.160 71.289 157.848
417.800 71.223 103.804
441.730 71.159 46.729
467.040 71.090 -13.629
493.800 71.005 -77.444
522.090 70.892 -144.857
552.000 70.745 144.031
583.620 70.571 69.142
617.050 70.392 -9.675
652.400 70.237 -92.711
689.780 70.127 179.623
729.290 70.065 86.889
771.080 70.042 -11.460
815.250 70.036 -115.817
861.950 70.015 133.353
911.330 69.937 15.680
963.540 69.758 -109.092
1018.740 69.439 118.898
1077.110 68.948 -20.411
1138.810 68.260 -166.827
1204.050 67.527 39.900
1273.030 66.821 -120.825
1345.960 66.251 69.866
1423.070 65.817 -109.245
1504.590 65.505 60.889
1590.790 65.279 -141.228
1681.920 64.996 3.215
1778.280 64.418 133.383
1880.150 63.362 -109.966
1987.870 61.823 -6.205
2101.750 59.831 84.831
2222.150 57.422 163.735
2349.460 54.991 -129.566
2484.060 52.679 -79.413
2626.360 49.633 -47.831
2776.820 44.945 -27.060
2935.900 40.771 5.233
3104.100 42.681 12.264
3281.930 45.588 -25.138
3469.940 47.865 -95.895
3668.730 49.202 156.942
3878.910 48.678 19.826
4101.130 47.100 -138.706
4336.070 45.711 36.182
4584.480 43.507 172.504
4847.120 38.865 -80.776
5124.810 32.695 9.038
5418.400 25.959 111.801
5728.810 31.078 151.413
6057.010 33.178 121.169
6404.000 35.200 31.177
6770.880 32.381 -109.481
7158.770 28.770 70.170
7568.890 21.831 -163.455
8002.500 11.750 -8.645
8460.950 24.830 46.147
8945.670 23.960 -20.234
9458.160 22.859 -121.238
10000.000 19.502 100.609
