# Freq(Hz) SPL(dB) Phase (degrees)
10.000 51.021 104.685
10.570 51.818 100.525
11.180 52.607 96.090
11.820 53.368 91.455
12.500 54.111 86.550
13.210 54.818 81.448
13.970 55.506 76.007
14.770 56.158 70.299
15.620 56.776 64.251
16.510 57.346 57.932
17.460 57.872 51.195
18.460 58.339 44.104
19.510 58.735 36.649
20.630 59.051 28.673
21.810 59.265 20.229
23.060 59.349 11.222
24.380 59.265 1.626
25.780 58.953 -8.660
27.260 58.321 -19.657
28.820 57.214 -31.365
30.470 55.328 -43.808
32.220 51.910 -56.852
34.060 43.898 -68.993
36.010 42.013 88.724
38.080 52.920 76.390
40.260 57.796 61.458
42.560 60.903 46.268
45.000 63.113 31.119
47.580 64.757 16.218
50.310 66.018 1.614
53.190 67.004 -12.661
56.230 67.789 -26.666
59.460 68.429 -40.559
62.860 68.953 -54.288
66.460 69.390 -68.014
70.270 69.758 -81.806
74.300 70.070 -95.727
78.550 70.337 -109.804
83.050 70.566 -124.157
87.810 70.764 -138.834
92.840 70.936 -153.878
98.160 71.085 -169.359
103.780 71.213 174.684
109.730 71.325 158.161
116.020 71.421 141.039
122.660 71.504 123.286
129.690 71.574 104.792
137.120 71.634 85.528
144.970 71.683 65.441
153.280 71.724 44.427
162.060 71.755 22.460
171.340 71.779 -0.537
181.160 71.795 -24.662
191.540 71.803 -49.963
202.510 71.804 -76.513
214.110 71.796 -104.406
226.380 71.781 -133.733
239.350 71.758 -164.559
253.060 71.727 163.029
267.560 71.688 128.923
282.890 71.643 93.041
299.090 71.593 55.302
316.230 71.542 15.552
334.340 71.493 -26.279
353.500 71.451 -70.386
373.750 71.422 -116.893
395.160 71.407 -166.011
417.800 71.405 142.035
441.730 71.410 87.043
467.040 71.407 28.774
493.800 71.380 -32.915
522.090 71.318 -98.118
552.000 71.218 -166.914
583.620 71.093 120.596
617.050 70.960 44.197
652.400 70.835 -36.443
689.780 70.715 -121.690
729.290 70.586 148.168
771.080 70.433 52.821
815.250 70.250 -47.857
861.950 70.046 -154.108
911.330 69.840 93.769
963.540 69.657 -24.622
1018.740 69.529 -149.846
1077.110 69.465 77.202
1138.810 69.400 -64.564
1204.050 69.206 144.623
1273.030 68.752 -15.746
1345.960 67.934 174.793
1423.070 66.705 -2.832
1504.590 65.224 172.541
1590.790 63.880 -19.166
1681.920 63.015 139.406
1778.280 62.598 -75.735
1880.150 62.173 52.245
1987.870 61.110 163.674
2101.750 59.080 -98.055
2222.150 56.535 -9.221
2349.460 54.221 66.930
2484.060 51.801 124.426
2626.360 48.121 162.756
2776.820 41.946 -168.278
2935.900 34.326 -119.852
3104.100 36.799 -76.696
3281.930 41.194 -94.989
3469.940 42.536 -148.217
3668.730 44.551 129.681
3878.910 44.736 6.421
4101.130 41.950 -134.735
4336.070 40.819 65.021
4584.480 38.382 -148.491
4847.120 29.978 -18.670
5124.810 23.486 100.973
5418.400 5.610 -175.945
5728.810 15.346 20.062
6057.010 19.141 47.658
6404.000 25.235 5.760
6770.880 29.627 -90.075
7158.770 25.828 102.754
7568.890 23.279 -68.684
8002.500 19.919 137.755
8460.950 27.930 -155.814
8945.670 30.648 -145.673
9458.160 27.443 158.306
10000.000 24.684 20.092
