# Freq(Hz) SPL(dB) Phase (degrees)
10.000 52.129 107.421
10.570 52.926 103.417
11.180 53.714 99.149
11.820 54.476 94.690
12.500 55.218 89.971
13.210 55.925 85.064
13.970 56.613 79.832
14.770 57.265 74.343
15.620 57.883 68.528
16.510 58.452 62.453
17.460 58.978 55.977
18.460 59.444 49.160
19.510 59.840 41.994
20.630 60.156 34.325
21.810 60.369 26.206
23.060 60.453 17.542
24.380 60.369 8.309
25.780 60.056 -1.591
27.260 59.423 -12.180
28.820 58.316 -23.457
30.470 56.429 -35.445
32.220 53.010 -48.005
34.060 44.997 -59.638
36.010 43.112 98.620
38.080 54.017 86.861
40.260 58.892 72.534
42.560 61.998 57.985
45.000 64.207 43.516
47.580 65.850 29.337
50.310 67.109 15.498
53.190 68.093 2.032
56.230 68.877 -11.116
59.460 69.516 -24.096
62.860 70.038 -36.861
66.460 70.474 -49.563
70.270 70.841 -62.266
74.300 71.153 -75.031
78.550 71.420 -87.883
83.050 71.650 -100.934
87.810 71.849 -114.225
92.840 72.023 -127.799
98.160 72.176 -141.717
103.780 72.311 -156.014
109.730 72.431 -170.771
116.020 72.539 173.982
122.660 72.638 158.217
129.690 72.729 141.835
137.120 72.814 124.810
144.970 72.897 107.090
153.280 72.979 88.580
162.060 73.063 69.251
171.340 73.149 49.027
181.160 73.241 27.810
191.540 73.339 5.543
202.510 73.446 -17.855
214.110 73.562 -42.491
226.380 73.686 -68.471
239.350 73.820 -95.882
253.060 73.961 -124.835
267.560 74.107 -155.460
282.890 74.253 172.136
299.090 74.396 137.849
316.230 74.529 101.517
334.340 74.643 63.074
353.500 74.730 22.358
373.750 74.778 -20.686
395.160 74.776 -66.149
417.800 74.713 -114.077
441.730 74.581 -164.446
467.040 74.383 142.758
493.800 74.141 87.608
522.090 73.896 30.091
552.000 73.707 -30.013
583.620 73.624 -93.177
617.050 73.659 -160.064
652.400 73.778 128.696
689.780 73.919 52.738
729.290 74.032 -27.988
771.080 74.102 -113.490
815.250 74.159 156.218
861.950 74.240 60.765
911.330 74.369 -40.464
963.540 74.531 -148.238
1018.740 74.649 96.614
1077.110 74.554 -26.378
1138.810 74.064 -156.522
1204.050 73.165 67.732
1273.030 72.148 -72.408
1345.960 71.395 141.715
1423.070 70.949 -12.851
1504.590 70.552 -177.509
1590.790 70.086 8.040
1681.920 69.632 -176.484
1778.280 69.166 -12.524
1880.150 68.504 139.429
1987.870 67.681 -79.950
2101.750 66.966 47.286
2222.150 65.877 157.507
2349.460 63.840 -106.923
2484.060 60.993 -23.859
2626.360 57.375 45.605
2776.820 52.418 98.785
2935.900 42.679 125.584
3104.100 42.546 10.337
3281.930 51.145 -18.579
3469.940 55.166 -45.985
3668.730 56.823 -97.548
3878.910 56.433 -166.655
4101.130 56.536 106.636
4336.070 56.245 -13.403
4584.480 54.345 -160.725
4847.120 51.946 25.616
5124.810 47.058 175.982
5418.400 34.523 -74.072
5728.810 39.767 -144.788
6057.010 46.228 -92.191
6404.000 48.593 -80.081
6770.880 48.673 -106.775
7158.770 46.269 177.821
7568.890 40.039 64.571
8002.500 21.804 138.060
8460.950 39.131 -125.092
8945.670 42.872 -27.631
9458.160 41.816 6.739
10000.000 35.770 -20.449
