# Freq(Hz) SPL(dB) Phase (degrees)
10.000 52.774 108.856
10.570 53.572 104.934
11.180 54.360 100.754
11.820 55.122 96.386
12.500 55.864 91.765
13.210 56.572 86.960
13.970 57.260 81.837
14.770 57.913 76.463
15.620 58.531 70.770
16.510 59.101 64.823
17.460 59.628 58.483
18.460 60.095 51.811
19.510 60.491 44.795
20.630 60.808 37.288
21.810 61.022 29.338
23.060 61.107 20.855
24.380 61.024 11.812
25.780 60.713 2.114
27.260 60.082 -8.261
28.820 58.976 -19.314
30.470 57.092 -31.063
32.220 53.675 -43.370
34.060 45.665 -54.736
36.010 43.783 103.804
38.080 54.692 92.344
40.260 59.571 78.333
42.560 62.681 64.119
45.000 64.895 50.004
47.580 66.543 36.201
50.310 67.809 22.759
53.190 68.800 9.713
56.230 69.592 -2.992
59.460 70.240 -15.500
62.860 70.773 -27.769
66.460 71.221 -39.944
70.270 71.602 -52.090
74.300 71.930 -64.265
78.550 72.214 -76.496
83.050 72.465 -88.891
87.810 72.688 -101.490
92.840 72.890 -114.334
98.160 73.074 -127.485
103.780 73.244 -140.978
109.730 73.405 -154.892
116.020 73.559 -169.259
122.660 73.710 175.889
129.690 73.861 160.455
137.120 74.014 144.404
144.970 74.171 127.682
153.280 74.337 110.188
162.060 74.511 91.885
171.340 74.697 72.689
181.160 74.895 52.495
191.540 75.106 31.238
202.510 75.329 8.830
214.110 75.563 -14.834
226.380 75.806 -39.859
239.350 76.054 -66.325
253.060 76.303 -94.324
267.560 76.548 -123.962
282.890 76.784 -155.311
299.090 77.005 171.569
316.230 77.208 136.572
334.340 77.390 99.683
353.500 77.553 60.801
373.750 77.699 19.906
395.160 77.840 -23.085
417.800 77.990 -68.282
441.730 78.169 -115.824
467.040 78.400 -165.990
493.800 78.694 140.881
522.090 79.047 84.367
552.000 79.430 24.050
583.620 79.791 -40.344
617.050 80.080 -108.907
652.400 80.261 178.411
689.780 80.327 101.727
729.290 80.294 21.149
771.080 80.203 -63.443
815.250 80.095 -152.257
861.950 79.995 114.230
911.330 79.891 15.585
963.540 79.771 -88.369
1018.740 79.676 162.283
1077.110 79.697 46.885
1138.810 79.829 -75.820
1204.050 79.931 153.218
1273.030 79.873 14.264
1345.960 79.666 -132.421
1423.070 79.367 72.955
1504.590 79.006 -90.258
1590.790 78.532 97.166
1681.920 77.891 -84.637
1778.280 77.154 84.049
1880.150 76.283 -117.355
1987.870 75.347 31.932
2101.750 74.735 170.558
2222.150 74.378 -64.801
2349.460 73.982 44.603
2484.060 73.415 138.948
2626.360 72.705 -141.837
2776.820 71.890 -78.981
2935.900 70.894 -33.597
3104.100 69.599 -6.578
3281.930 67.810 1.704
3469.940 65.550 -7.709
3668.730 62.988 -34.647
3878.910 60.465 -82.570
4101.130 57.104 -153.997
4336.070 52.424 122.486
4584.480 48.676 26.741
4847.120 46.726 -74.472
5124.810 51.989 138.739
5418.400 55.531 -71.654
5728.810 57.242 39.646
6057.010 57.850 113.890
6404.000 57.505 152.201
6770.880 56.725 152.916
7158.770 55.180 108.643
7568.890 52.240 22.843
8002.500 47.389 -105.065
8460.950 38.346 91.973
8945.670 35.487 -2.546
9458.160 44.411 85.063
10000.000 47.263 99.352
