# Freq(Hz) SPL(dB) Phase (degrees)
10.000 53.116 109.574
10.570 53.914 105.693
11.180 54.703 101.556
11.820 55.465 97.235
12.500 56.207 92.663
13.210 56.915 87.909
13.970 57.604 82.840
14.770 58.256 77.523
15.620 58.875 71.891
16.510 59.446 66.008
17.460 59.973 59.737
18.460 60.440 53.136
19.510 60.837 46.196
20.630 61.155 38.770
21.810 61.369 30.904
23.060 61.455 22.511
24.380 61.373 13.563
25.780 61.063 3.965
27.260 60.433 -6.304
28.820 59.328 -17.245
30.470 57.445 -28.876
32.220 54.030 -41.057
34.060 46.022 -52.291
36.010 44.141 106.389
38.080 55.052 95.077
40.260 59.933 81.223
42.560 63.047 67.173
45.000 65.263 53.233
47.580 66.915 39.614
50.310 68.185 26.367
53.190 69.180 13.526
56.230 69.977 1.038
59.460 70.631 -11.242
62.860 71.170 -23.269
66.460 71.625 -35.191
70.270 72.014 -47.069
74.300 72.351 -58.964
78.550 72.646 -70.901
83.050 72.908 -82.986
87.810 73.145 -95.262
92.840 73.361 -107.769
98.160 73.561 -120.569
103.780 73.750 -133.698
109.730 73.932 -147.236
116.020 74.109 -161.215
122.660 74.285 -175.670
129.690 74.463 169.299
137.120 74.645 153.659
144.970 74.834 137.350
153.280 75.032 120.271
162.060 75.240 102.382
171.340 75.460 83.599
181.160 75.691 63.817
191.540 75.934 42.974
202.510 76.186 20.986
214.110 76.445 -2.247
226.380 76.708 -26.819
239.350 76.971 -52.798
253.060 77.229 -80.260
267.560 77.478 -109.290
282.890 77.713 -139.942
299.090 77.933 -172.252
316.230 78.137 153.693
334.340 78.329 117.895
353.500 78.518 80.249
373.750 78.719 40.709
395.160 78.952 -0.880
417.800 79.235 -44.740
441.730 79.584 -91.158
467.040 80.002 -140.546
493.800 80.469 166.707
522.090 80.947 110.256
552.000 81.383 49.885
583.620 81.722 -14.429
617.050 81.930 -82.557
652.400 82.002 -154.319
689.780 81.967 130.412
729.290 81.873 51.615
771.080 81.774 -31.061
815.250 81.701 -118.082
861.950 81.644 149.910
911.330 81.555 52.425
963.540 81.362 -50.716
1018.740 81.014 -159.324
1077.110 80.524 87.117
1138.810 80.049 -31.033
1204.050 79.789 -154.802
1273.030 79.749 74.041
1345.960 79.809 -65.324
1423.070 79.931 146.790
1504.590 80.092 -10.281
1590.790 80.217 -177.091
1681.920 80.268 6.319
1778.280 80.292 179.511
1880.150 80.263 -18.437
1987.870 80.073 132.029
2101.750 79.711 -88.695
2222.150 79.279 39.119
2349.460 78.872 154.759
2484.060 78.582 -102.877
2626.360 78.430 -15.300
2776.820 78.365 56.086
2935.900 78.295 110.196
3104.100 78.142 146.405
3281.930 77.911 164.410
3469.940 77.684 163.023
3668.730 77.414 140.957
3878.910 77.119 97.256
4101.130 76.799 30.823
4336.070 76.534 -59.776
4584.480 76.313 -176.304
4847.120 76.088 39.327
5124.810 75.782 -134.105
5418.400 75.405 22.174
5728.810 75.007 146.474
6057.010 74.603 -123.173
6404.000 74.189 -68.785
6770.880 73.733 -52.889
7158.770 73.204 -76.898
7568.890 72.680 -143.295
8002.500 72.102 105.364
8460.950 71.510 -53.454
8945.670 70.891 97.278
9458.160 70.211 -164.934
10000.000 69.459 -123.553
