# Freq(Hz) SPL(dB) Phase (degrees)
10.000 50.463 103.164
10.570 51.261 98.917
11.180 52.050 94.389
11.820 52.812 89.657
12.500 53.554 84.648
13.210 54.262 79.439
13.970 54.951 73.882
14.770 55.603 68.052
15.620 56.222 61.874
16.510 56.792 55.420
17.460 57.319 48.538
18.460 57.787 41.295
19.510 58.183 33.680
20.630 58.501 25.533
21.810 58.715 16.909
23.060 58.801 7.711
24.380 58.719 -2.087
25.780 58.408 -12.587
27.260 57.778 -23.809
28.820 56.673 -35.756
30.470 54.789 -48.452
32.220 51.373 -61.764
34.060 43.364 -74.187
36.010 41.483 83.232
38.080 52.393 70.580
40.260 57.273 55.312
42.560 60.384 39.769
45.000 62.599 24.243
47.580 64.249 8.945
50.310 65.516 -6.082
53.190 66.508 -20.803
56.230 67.300 -35.279
59.460 67.949 -49.675
62.860 68.482 -63.934
66.460 68.929 -78.223
70.270 69.308 -92.612
74.300 69.634 -107.167
78.550 69.914 -121.916
83.050 70.160 -136.983
87.810 70.375 -152.418
92.840 70.566 -168.268
98.160 70.736 175.394
103.780 70.889 158.527
109.730 71.027 141.033
116.020 71.153 122.877
122.660 71.268 104.025
129.690 71.374 84.356
137.120 71.473 63.839
144.970 71.566 42.415
153.280 71.654 19.968
162.060 71.739 -3.531
171.340 71.820 -28.169
181.160 71.899 -54.057
191.540 71.976 -81.252
202.510 72.052 -109.839
214.110 72.126 -139.927
226.380 72.199 -171.625
239.350 72.270 154.984
253.060 72.338 119.794
267.560 72.404 82.674
282.890 72.467 43.520
299.090 72.525 2.230
316.230 72.580 -41.376
334.340 72.631 -87.376
353.500 72.679 -135.975
373.750 72.724 172.713
395.160 72.767 118.493
417.800 72.808 61.158
441.730 72.844 0.518
467.040 72.869 -63.703
493.800 72.874 -131.725
522.090 72.841 156.230
552.000 72.752 79.969
583.620 72.591 -0.634
617.050 72.350 -85.686
652.400 72.034 -175.328
689.780 71.659 90.229
729.290 71.235 -9.283
771.080 70.765 -114.321
815.250 70.237 134.793
861.950 69.626 17.683
911.330 68.911 -105.927
963.540 68.080 123.743
1018.740 67.121 -13.585
1077.110 66.020 -158.168
1138.810 64.774 49.949
1204.050 63.425 -109.472
1273.030 62.025 83.057
1345.960 60.578 -93.072
1423.070 59.030 81.619
1504.590 57.431 -112.582
1590.790 56.025 44.105
1681.920 54.980 -171.356
1778.280 53.957 -41.477
1880.150 52.663 74.434
1987.870 51.104 177.481
2101.750 49.627 -92.249
2222.150 48.409 -19.167
2349.460 46.750 32.588
2484.060 43.650 67.675
2626.360 39.165 93.092
2776.820 34.426 118.172
2935.900 32.962 139.742
3104.100 34.713 122.582
3281.930 35.994 79.733
3469.940 38.361 7.245
3668.730 41.311 -103.898
3878.910 43.334 105.128
4101.130 44.235 -77.189
4336.070 43.968 67.408
4584.480 42.139 174.441
4847.120 38.513 -110.038
5124.810 30.478 -58.982
5418.400 24.175 14.775
5728.810 26.562 3.183
6057.010 22.522 -62.470
6404.000 16.580 -18.126
6770.880 25.327 150.713
7158.770 24.582 -88.961
7568.890 17.032 36.818
8002.500 18.228 151.955
8460.950 22.545 108.662
8945.670 23.555 42.999
9458.160 17.777 -81.015
10000.000 12.735 98.239
