# Freq(Hz) SPL(dB) Phase (degrees)
10.000 52.673 108.639
10.570 53.470 104.705
11.180 54.259 100.511
11.820 55.021 96.130
12.500 55.763 91.494
13.210 56.471 86.674
13.970 57.159 81.534
14.770 57.811 76.142
15.620 58.429 70.431
16.510 58.999 64.465
17.460 59.525 58.105
18.460 59.992 51.410
19.510 60.388 44.372
20.630 60.705 36.840
21.810 60.918 28.865
23.060 61.003 20.354
24.380 60.919 11.283
25.780 60.608 1.554
27.260 59.976 -8.854
28.820 58.870 -19.940
30.470 56.984 -31.726
32.220 53.567 -44.071
34.060 45.556 -55.478
36.010 43.672 103.020
38.080 54.580 91.514
40.260 59.458 77.456
42.560 62.567 63.190
45.000 64.778 49.022
47.580 66.425 35.161
50.310 67.688 21.659
53.190 68.677 8.550
56.230 69.466 -4.222
59.460 70.111 -16.803
62.860 70.641 -29.147
66.460 71.084 -41.402
70.270 71.461 -53.632
74.300 71.783 -65.897
78.550 72.062 -78.223
83.050 72.306 -90.716
87.810 72.521 -103.421
92.840 72.714 -116.375
98.160 72.888 -129.642
103.780 73.047 -143.255
109.730 73.195 -157.295
116.020 73.335 -171.792
122.660 73.469 173.222
129.690 73.601 157.649
137.120 73.733 141.458
144.970 73.868 124.595
153.280 74.008 106.960
162.060 74.154 88.517
171.340 74.308 69.185
181.160 74.472 48.860
191.540 74.646 27.479
202.510 74.830 4.955
214.110 75.022 -18.819
226.380 75.220 -43.947
239.350 75.421 -70.510
253.060 75.621 -98.605
267.560 75.813 -128.341
282.890 75.993 -159.796
299.090 76.153 166.962
316.230 76.287 131.820
334.340 76.390 94.764
353.500 76.456 55.693
373.750 76.485 14.608
395.160 76.478 -28.534
417.800 76.446 -73.768
441.730 76.405 -121.121
467.040 76.386 -170.739
493.800 76.422 137.150
522.090 76.536 82.155
552.000 76.724 23.789
583.620 76.948 -38.343
617.050 77.163 -104.425
652.400 77.339 -174.447
689.780 77.485 111.669
729.290 77.644 33.878
771.080 77.873 -48.278
815.250 78.194 -135.463
861.950 78.565 131.534
911.330 78.900 32.262
963.540 79.128 -73.330
1018.740 79.221 174.831
1077.110 79.186 56.634
1138.810 79.024 -68.157
1204.050 78.708 160.326
1273.030 78.226 21.955
1345.960 77.609 -122.923
1423.070 77.024 85.635
1504.590 76.633 -73.822
1590.790 76.354 116.924
1681.920 76.069 -62.524
1778.280 75.778 107.098
1880.150 75.341 -94.998
1987.870 74.695 51.789
2101.750 74.041 -172.810
2222.150 73.420 -51.195
2349.460 72.565 55.268
2484.060 71.261 146.690
2626.360 69.400 -135.952
2776.820 67.196 -72.184
2935.900 64.748 -24.521
3104.100 61.552 5.527
3281.930 57.121 20.639
3469.940 49.916 22.786
3668.730 44.987 106.280
3878.910 53.739 68.191
4101.130 55.339 -2.822
4336.070 56.949 -91.443
4584.480 58.573 142.977
4847.120 58.654 -11.995
5124.810 58.345 164.213
5418.400 57.240 -51.971
5728.810 55.136 57.865
6057.010 51.342 136.917
6404.000 45.836 177.491
6770.880 27.541 -74.404
7158.770 44.465 -53.385
7568.890 48.762 -141.490
8002.500 49.710 86.932
8460.950 48.743 -94.667
8945.670 44.813 34.354
9458.160 36.843 101.645
10000.000 31.859 -50.912
