# Freq(Hz) SPL(dB) Phase (degrees)
10.000 52.987 109.308
10.570 53.785 105.411
11.180 54.574 101.258
11.820 55.335 96.920
12.500 56.078 92.330
13.210 56.786 87.557
13.970 57.474 82.468
14.770 58.127 77.130
15.620 58.745 71.475
16.510 59.315 65.568
17.460 59.842 59.272
18.460 60.309 52.644
19.510 60.706 45.676
20.630 61.023 38.220
21.810 61.237 30.323
23.060 61.323 21.896
24.380 61.240 12.913
25.780 60.929 3.278
27.260 60.298 -7.031
28.820 59.193 -18.013
30.470 57.309 -29.688
32.220 53.893 -41.916
34.060 45.884 -53.199
36.010 44.002 105.429
38.080 54.912 94.062
40.260 59.792 80.150
42.560 62.903 66.039
45.000 65.118 52.034
47.580 66.768 38.346
50.310 68.035 25.027
53.190 69.028 12.110
56.230 69.822 -0.459
59.460 70.472 -12.824
62.860 71.008 -24.941
66.460 71.459 -36.957
70.270 71.843 -48.935
74.300 72.174 -60.934
78.550 72.463 -72.980
83.050 72.718 -85.180
87.810 72.947 -97.576
92.840 73.154 -110.208
98.160 73.344 -123.138
103.780 73.522 -136.401
109.730 73.691 -150.077
116.020 73.855 -164.199
122.660 74.015 -178.799
129.690 74.176 166.024
137.120 74.340 150.235
144.970 74.509 133.778
153.280 74.685 116.552
162.060 74.870 98.517
171.340 75.065 79.591
181.160 75.271 59.669
191.540 75.487 38.687
202.510 75.711 16.561
214.110 75.942 -6.811
226.380 76.177 -31.528
239.350 76.411 -57.660
253.060 76.639 -85.291
267.560 76.855 -114.513
282.890 77.056 -145.384
299.090 77.235 -177.949
316.230 77.389 147.703
334.340 77.520 111.577
353.500 77.630 73.584
373.750 77.728 33.713
395.160 77.829 -8.126
417.800 77.954 -52.070
441.730 78.125 -98.313
467.040 78.359 -147.198
493.800 78.658 160.892
522.090 78.998 105.554
552.000 79.335 46.484
583.620 79.613 -16.407
617.050 79.798 -83.011
652.400 79.889 -153.136
689.780 79.926 133.331
729.290 79.974 56.277
771.080 80.090 -24.805
815.250 80.296 -110.519
861.950 80.567 158.486
911.330 80.861 61.808
963.540 81.159 -40.772
1018.740 81.475 -149.643
1077.110 81.790 94.386
1138.810 81.984 -29.287
1204.050 81.927 -160.371
1273.030 81.622 61.743
1345.960 81.166 -82.882
1423.070 80.609 125.330
1504.590 79.992 -33.854
1590.790 79.433 158.993
1681.920 78.954 -17.483
1778.280 78.469 155.961
1880.150 77.975 -40.975
1987.870 77.497 110.897
2101.750 76.976 -109.373
2222.150 76.330 18.215
2349.460 75.685 133.809
2484.060 75.250 -124.465
2626.360 74.850 -38.839
2776.820 74.319 30.508
2935.900 73.699 83.321
3104.100 73.056 118.247
3281.930 72.275 133.277
3469.940 71.136 128.277
3668.730 69.672 103.685
3878.910 68.059 57.037
4101.130 65.839 -12.133
4336.070 63.233 -101.851
4584.480 60.874 145.232
4847.120 57.865 0.129
5124.810 52.893 -171.488
5418.400 42.998 1.562
5728.810 45.077 -108.411
6057.010 52.297 -9.273
6404.000 55.596 40.623
6770.880 56.215 53.736
7158.770 56.669 28.807
7568.890 56.395 -40.024
8002.500 55.497 -154.297
8460.950 53.969 41.184
8945.670 50.493 -175.111
9458.160 44.486 -78.642
10000.000 32.636 -15.479
