# Freq(Hz) SPL(dB) Phase (degrees)
10.000 50.933 104.452
10.570 51.731 100.279
11.180 52.519 95.830
11.820 53.281 91.180
12.500 54.023 86.259
13.210 54.731 81.141
13.970 55.419 75.683
14.770 56.071 69.956
15.620 56.689 63.888
16.510 57.259 57.548
17.460 57.785 50.789
18.460 58.252 43.675
19.510 58.648 36.195
20.630 58.964 28.193
21.810 59.178 19.722
23.060 59.263 10.685
24.380 59.179 1.058
25.780 58.867 -9.260
27.260 58.235 -20.292
28.820 57.128 -32.036
30.470 55.242 -44.518
32.220 51.825 -57.603
34.060 43.813 -69.788
36.010 41.929 87.884
38.080 52.836 75.501
40.260 57.713 60.517
42.560 60.821 45.274
45.000 63.031 30.066
47.580 64.676 15.105
50.310 65.937 0.435
53.190 66.924 -13.908
56.230 67.710 -27.985
59.460 68.351 -41.956
62.860 68.876 -55.767
66.460 69.314 -69.580
70.270 69.683 -83.464
74.300 69.997 -97.483
78.550 70.266 -111.664
83.050 70.497 -126.128
87.810 70.697 -140.922
92.840 70.871 -156.092
98.160 71.022 -171.707
103.780 71.153 172.195
109.730 71.268 155.520
116.020 71.367 138.235
122.660 71.453 120.310
129.690 71.527 101.630
137.120 71.591 82.169
144.970 71.645 61.871
153.280 71.690 40.629
162.060 71.726 18.418
171.340 71.754 -4.840
181.160 71.775 -29.246
191.540 71.788 -54.850
202.510 71.794 -81.725
214.110 71.791 -109.968
226.380 71.779 -139.673
239.350 71.759 -170.906
253.060 71.729 156.244
267.560 71.690 121.669
282.890 71.641 85.287
299.090 71.584 47.017
316.230 71.521 6.708
334.340 71.455 -35.700
353.500 71.391 -80.396
373.750 71.333 -127.486
395.160 71.284 -177.170
417.800 71.247 130.340
441.730 71.217 74.847
467.040 71.183 16.105
493.800 71.133 -46.038
522.090 71.056 -111.693
552.000 70.950 179.057
583.620 70.831 106.105
617.050 70.724 29.216
652.400 70.647 -52.004
689.780 70.599 -138.009
729.290 70.556 130.827
771.080 70.489 34.138
815.250 70.373 -68.223
861.950 70.194 -176.466
911.330 69.947 69.206
963.540 69.634 -51.406
1018.740 69.269 -178.473
1077.110 68.896 47.730
1138.810 68.596 -93.447
1204.050 68.383 117.265
1273.030 68.222 -41.904
1345.960 67.929 148.386
1423.070 67.331 -31.731
1504.590 66.368 138.396
1590.790 65.101 -60.596
1681.920 63.656 91.639
1778.280 62.310 -124.839
1880.150 61.576 7.139
1987.870 61.250 121.468
2101.750 60.430 -143.676
2222.150 58.571 -65.119
2349.460 55.655 0.656
2484.060 52.063 56.013
2626.360 48.258 99.786
2776.820 43.596 129.981
2935.900 38.402 168.135
3104.100 39.860 -166.013
3281.930 42.571 169.651
3469.940 44.892 110.373
3668.730 45.743 13.165
3878.910 44.556 -105.257
4101.130 43.600 113.750
4336.070 42.294 -64.822
4584.480 37.839 92.943
4847.120 35.790 -141.859
5124.810 28.703 -63.323
5418.400 13.467 64.576
5728.810 23.862 130.199
6057.010 14.029 45.988
6404.000 15.142 6.247
6770.880 15.049 167.729
7158.770 20.715 5.473
7568.890 17.923 144.031
8002.500 18.987 -45.077
8460.950 24.008 15.816
8945.670 28.792 8.382
9458.160 18.524 -88.973
10000.000 19.713 166.700
