# Freq(Hz) SPL(dB) Phase (degrees)
10.000 51.655 106.295
10.570 52.452 102.227
11.180 53.240 97.890
11.820 54.002 93.358
12.500 54.744 88.563
13.210 55.452 83.576
13.970 56.139 78.257
14.770 56.791 72.678
15.620 57.409 66.767
16.510 57.978 60.592
17.460 58.504 54.008
18.460 58.970 47.079
19.510 59.365 39.794
20.630 59.681 31.999
21.810 59.894 23.746
23.060 59.978 14.941
24.380 59.894 5.558
25.780 59.581 -4.501
27.260 58.948 -15.257
28.820 57.840 -26.712
30.470 55.953 -38.888
32.220 52.534 -51.647
34.060 44.520 -63.488
36.010 42.634 94.547
38.080 53.540 82.551
40.260 58.414 67.975
42.560 61.519 53.163
45.000 63.727 38.414
47.580 65.369 23.939
50.310 66.627 9.785
53.190 67.610 -4.014
56.230 68.392 -17.514
59.460 69.029 -30.869
62.860 69.549 -44.030
66.460 69.983 -57.152
70.270 70.347 -70.301
74.300 70.655 -83.540
78.550 70.917 -96.893
83.050 71.141 -110.476
87.810 71.335 -124.333
92.840 71.501 -138.505
98.160 71.645 -153.058
103.780 71.769 -168.026
109.730 71.876 176.504
116.020 71.968 160.505
122.660 72.047 143.947
129.690 72.116 126.729
137.120 72.176 108.824
144.970 72.228 90.184
153.280 72.274 70.713
162.060 72.315 50.387
171.340 72.353 29.133
181.160 72.390 6.858
191.540 72.426 -16.486
202.510 72.464 -40.971
214.110 72.505 -66.694
226.380 72.551 -93.751
239.350 72.604 -122.221
253.060 72.663 -152.206
267.560 72.732 176.167
282.890 72.810 142.785
299.090 72.897 107.534
316.230 72.992 70.226
334.340 73.093 30.757
353.500 73.192 -11.087
373.750 73.281 -55.427
395.160 73.348 -102.434
417.800 73.375 -152.246
441.730 73.344 155.069
467.040 73.238 99.449
493.800 73.049 40.943
522.090 72.782 -20.369
552.000 72.468 -84.437
583.620 72.155 -151.319
617.050 71.910 138.700
652.400 71.784 65.050
689.780 71.793 -13.025
729.290 71.903 -96.227
771.080 72.051 174.854
815.250 72.169 79.952
861.950 72.195 -21.167
911.330 72.070 -128.586
963.540 71.749 117.769
1018.740 71.217 -1.941
1077.110 70.480 -127.493
1138.810 69.617 101.439
1204.050 68.816 -35.606
1273.030 68.110 179.812
1345.960 67.362 26.976
1423.070 66.577 -133.442
1504.590 66.043 57.946
1590.790 65.810 -122.177
1681.920 65.476 44.287
1778.280 64.630 -161.886
1880.150 63.231 -17.472
1987.870 62.011 118.131
2101.750 61.261 -122.044
2222.150 59.843 -21.697
2349.460 57.011 64.623
2484.060 53.145 141.752
2626.360 48.634 -152.268
2776.820 41.756 -97.182
2935.900 31.883 27.947
3104.100 46.046 79.141
3281.930 46.776 72.343
3469.940 49.475 38.782
3668.730 49.833 -23.374
3878.910 49.446 -98.114
4101.130 49.711 157.253
4336.070 48.827 19.408
4584.480 45.752 -141.513
4847.120 42.765 31.149
5124.810 35.670 173.816
5418.400 24.930 19.404
5728.810 35.675 132.601
6057.010 40.089 176.833
6404.000 40.864 167.684
6770.880 40.159 112.994
7158.770 35.735 22.282
7568.890 28.980 -90.849
8002.500 24.779 -164.369
8460.950 32.162 -30.012
8945.670 32.873 36.217
9458.160 31.613 45.818
10000.000 20.810 1.986
