# Freq(Hz) SPL(dB) Phase (degrees)
10.000 51.318 105.455
10.570 52.116 101.339
11.180 52.904 96.951
11.820 53.666 92.366
12.500 54.408 87.513
13.210 55.115 82.467
13.970 55.803 77.084
14.770 56.455 71.438
15.620 57.073 65.455
16.510 57.642 59.205
17.460 58.168 52.541
18.460 58.634 45.528
19.510 59.030 38.154
20.630 59.346 30.265
21.810 59.559 21.912
23.060 59.643 13.002
24.380 59.559 3.507
25.780 59.246 -6.670
27.260 58.613 -17.551
28.820 57.506 -29.138
30.470 55.619 -41.454
32.220 52.200 -54.361
34.060 44.188 -66.359
36.010 42.302 91.510
38.080 53.208 79.338
40.260 58.083 64.576
42.560 61.189 49.567
45.000 63.397 34.609
47.580 65.040 19.912
50.310 66.299 5.523
53.190 67.282 -8.524
56.230 68.065 -22.288
59.460 68.703 -35.924
62.860 69.224 -49.381
66.460 69.658 -62.818
70.270 70.023 -76.303
74.300 70.332 -89.897
78.550 70.595 -103.628
83.050 70.820 -117.613
87.810 71.014 -131.897
92.840 71.181 -146.523
98.160 71.324 -161.560
103.780 71.448 -177.043
109.730 71.554 166.940
116.020 71.644 150.357
122.660 71.721 133.179
129.690 71.785 115.301
137.120 71.839 96.695
144.970 71.882 77.310
153.280 71.918 57.048
162.060 71.945 35.885
171.340 71.966 13.748
181.160 71.980 -9.458
191.540 71.989 -33.777
202.510 71.994 -59.279
214.110 71.995 -86.056
226.380 71.994 -114.198
239.350 71.991 -143.771
253.060 71.988 -174.866
267.560 71.987 152.404
282.890 71.991 117.943
299.090 72.002 81.652
316.230 72.024 43.352
334.340 72.059 2.946
353.500 72.108 -39.794
373.750 72.169 -85.015
395.160 72.236 -132.937
417.800 72.298 176.230
441.730 72.336 122.332
467.040 72.331 65.204
493.800 72.263 4.796
522.090 72.123 -58.899
552.000 71.913 -125.876
583.620 71.651 163.847
617.050 71.368 90.163
652.400 71.100 12.841
689.780 70.884 -68.458
729.290 70.749 -154.154
771.080 70.712 115.141
815.250 70.774 18.858
861.950 70.912 -83.728
911.330 71.073 166.703
963.540 71.181 49.609
1018.740 71.139 -75.459
1077.110 70.806 151.225
1138.810 69.995 10.180
1204.050 68.664 -136.898
1273.030 66.987 71.794
1345.960 65.498 -83.283
1423.070 64.717 114.393
1504.590 64.437 -60.609
1590.790 63.983 110.258
1681.920 62.907 -90.829
1778.280 61.221 59.782
1880.150 59.784 -155.658
1987.870 59.372 -25.456
2101.750 58.793 84.127
2222.150 57.195 176.894
2349.460 54.709 -103.317
2484.060 51.651 -37.538
2626.360 47.306 10.835
2776.820 39.532 49.569
2935.900 28.379 159.219
3104.100 37.982 -162.768
3281.930 42.313 -175.826
3469.940 44.538 148.335
3668.730 45.962 68.388
3878.910 43.433 -26.124
4101.130 43.410 -133.206
4336.070 42.310 79.535
4584.480 41.180 -99.012
4847.120 35.842 54.821
5124.810 30.062 -169.877
5418.400 21.971 17.675
5728.810 31.635 102.278
6057.010 33.724 127.188
6404.000 35.841 92.534
6770.880 34.240 19.059
7158.770 31.922 -93.210
7568.890 24.664 107.109
8002.500 20.473 7.281
8460.950 22.998 124.885
8945.670 29.889 154.059
9458.160 29.400 111.953
10000.000 16.653 -18.997
