# Freq(Hz) SPL(dB) Phase (degrees)
10.000 51.916 106.924
10.570 52.713 102.891
11.180 53.502 98.593
11.820 54.263 94.102
12.500 55.005 89.350
13.210 55.713 84.407
13.970 56.400 79.137
14.770 57.052 73.608
15.620 57.670 67.751
16.510 58.240 61.631
17.460 58.766 55.108
18.460 59.232 48.242
19.510 59.627 41.023
20.630 59.943 33.299
21.810 60.156 25.120
23.060 60.240 16.395
24.380 60.155 7.096
25.780 59.843 -2.874
27.260 59.210 -13.537
28.820 58.102 -24.892
30.470 56.215 -36.963
32.220 52.796 -49.610
34.060 44.783 -61.334
36.010 42.897 96.827
38.080 53.803 84.964
40.260 58.677 70.528
42.560 61.783 55.864
45.000 63.991 41.273
47.580 65.634 26.965
50.310 66.893 12.988
53.190 67.876 -0.622
56.230 68.659 -13.922
59.460 69.297 -27.065
62.860 69.818 -40.001
66.460 70.253 -52.883
70.270 70.619 -65.777
74.300 70.929 -78.744
78.550 71.193 -91.809
83.050 71.421 -105.085
87.810 71.618 -118.615
92.840 71.789 -132.439
98.160 71.938 -146.621
103.780 72.069 -161.195
109.730 72.184 -176.243
116.020 72.286 168.206
122.660 72.378 152.123
129.690 72.462 135.410
137.120 72.539 118.041
144.970 72.612 99.966
153.280 72.684 81.091
162.060 72.756 61.390
171.340 72.831 40.787
181.160 72.911 19.188
191.540 72.999 -3.464
202.510 73.096 -27.248
214.110 73.204 -52.268
226.380 73.325 -78.634
239.350 73.460 -106.435
253.060 73.609 -135.786
267.560 73.772 -166.826
282.890 73.945 160.325
299.090 74.126 125.551
316.230 74.310 88.671
334.340 74.489 49.598
353.500 74.655 8.144
373.750 74.798 -35.778
395.160 74.905 -82.296
417.800 74.963 -131.508
441.730 74.960 176.551
467.040 74.889 121.826
493.800 74.754 64.339
522.090 74.570 4.078
552.000 74.366 -59.059
583.620 74.173 -125.293
617.050 74.012 165.035
652.400 73.889 91.543
689.780 73.799 13.879
729.290 73.734 -68.263
771.080 73.677 -155.274
815.250 73.595 112.684
861.950 73.473 15.588
911.330 73.354 -86.453
963.540 73.361 166.259
1018.740 73.606 52.365
1077.110 73.995 -70.061
1138.810 74.248 158.230
1204.050 74.159 18.112
1273.030 73.740 -129.397
1345.960 73.116 76.067
1423.070 72.415 -85.888
1504.590 71.719 103.842
1590.790 71.009 -75.731
1681.920 70.284 95.163
1778.280 69.688 -104.163
1880.150 69.314 43.813
1987.870 68.829 176.405
2101.750 67.761 -65.964
2222.150 65.959 38.873
2349.460 63.673 131.991
2484.060 60.982 -148.215
2626.360 57.780 -82.771
2776.820 53.315 -34.817
2935.900 43.594 3.176
3104.100 41.832 170.821
3281.930 51.068 154.044
3469.940 54.793 126.570
3668.730 57.172 69.271
3878.910 57.497 -13.539
4101.130 56.874 -115.736
4336.070 56.392 118.056
4584.480 55.369 -43.940
4847.120 52.110 125.624
5124.810 47.120 -90.732
5418.400 35.778 21.110
5728.810 38.794 -97.213
6057.010 46.347 -57.503
6404.000 48.392 -64.709
6770.880 47.959 -106.619
7158.770 46.431 162.139
7568.890 40.674 27.009
8002.500 14.323 -164.016
8460.950 37.802 146.820
8945.670 41.965 -146.177
9458.160 40.957 -131.971
10000.000 35.975 174.601
