# Freq(Hz) SPL(dB) Phase (degrees)
10.000 52.359 107.947
10.570 53.156 103.973
11.180 53.945 99.737
11.820 54.706 95.311
12.500 55.449 90.628
13.210 56.156 85.759
13.970 56.844 80.566
14.770 57.496 75.119
15.620 58.114 69.349
16.510 58.684 63.321
17.460 59.210 56.895
18.460 59.676 50.131
19.510 60.072 43.020
20.630 60.388 35.411
21.810 60.601 27.353
23.060 60.685 18.756
24.380 60.601 9.592
25.780 60.289 -0.234
27.260 59.656 -10.744
28.820 58.549 -21.939
30.470 56.663 -33.840
32.220 53.245 -46.307
34.060 45.232 -57.842
36.010 43.348 100.519
38.080 54.254 88.870
40.260 59.130 74.659
42.560 62.237 60.233
45.000 64.447 45.894
47.580 66.091 31.853
50.310 67.351 18.159
53.190 68.337 4.848
56.230 69.123 -8.137
59.460 69.763 -20.944
62.860 70.288 -33.526
66.460 70.727 -46.034
70.270 71.097 -58.531
74.300 71.413 -71.078
78.550 71.684 -83.701
83.050 71.919 -96.508
87.810 72.124 -109.543
92.840 72.305 -122.845
98.160 72.465 -136.477
103.780 72.609 -150.472
109.730 72.740 -164.912
116.020 72.860 -179.826
122.660 72.972 164.756
129.690 73.079 148.737
137.120 73.183 132.088
144.970 73.286 114.756
153.280 73.391 96.645
162.060 73.500 77.723
171.340 73.615 57.911
181.160 73.737 37.108
191.540 73.868 15.253
202.510 74.009 -7.738
214.110 74.159 -31.973
226.380 74.317 -57.559
239.350 74.483 -84.585
253.060 74.652 -113.155
267.560 74.821 -143.394
282.890 74.985 -175.399
299.090 75.138 150.741
316.230 75.271 114.885
334.340 75.378 76.987
353.500 75.449 36.915
373.750 75.476 -5.357
395.160 75.452 -49.889
417.800 75.372 -96.702
441.730 75.240 -145.760
467.040 75.071 162.926
493.800 74.902 109.343
522.090 74.778 53.315
552.000 74.744 -5.567
583.620 74.813 -67.867
617.050 74.958 -134.130
652.400 75.128 155.310
689.780 75.283 80.373
729.290 75.417 1.126
771.080 75.567 -82.574
815.250 75.784 -171.103
861.950 76.082 94.751
911.330 76.410 -5.808
963.540 76.678 -113.321
1018.740 76.770 131.963
1077.110 76.560 10.231
1138.810 75.985 -117.506
1204.050 75.170 109.858
1273.030 74.414 -28.038
1345.960 73.812 -172.917
1423.070 73.310 34.353
1504.590 73.000 -126.813
1590.790 72.910 61.294
1681.920 72.719 -122.841
1778.280 72.127 41.688
1880.150 71.238 -162.966
1987.870 70.529 -17.904
2101.750 69.950 113.100
2222.150 69.171 -131.392
2349.460 67.851 -32.086
2484.060 65.613 52.390
2626.360 62.534 124.322
2776.820 58.817 -178.438
2935.900 53.420 -142.758
3104.100 41.108 -159.910
3281.930 48.808 89.144
3469.940 55.431 62.523
3668.730 58.454 14.201
3878.910 58.803 -52.685
4101.130 58.853 -132.996
4336.070 59.304 115.554
4584.480 58.153 -25.650
4847.120 56.416 168.529
5124.810 53.361 -31.733
5418.400 47.203 95.636
5728.810 21.773 126.996
6057.010 44.291 88.163
6404.000 49.871 107.968
6770.880 51.284 91.663
7158.770 50.596 28.185
7568.890 47.178 -73.487
8002.500 39.410 136.459
8460.950 32.680 116.040
8945.670 42.933 -132.807
9458.160 44.977 -80.234
10000.000 42.493 -88.385
