# Freq(Hz) SPL(dB) Phase (degrees)
10.000 52.684 108.663
10.570 53.482 104.730
11.180 54.270 100.538
11.820 55.032 96.158
12.500 55.775 91.524
13.210 56.482 86.705
13.970 57.170 81.567
14.770 57.823 76.177
15.620 58.441 70.468
16.510 59.011 64.504
17.460 59.538 58.146
18.460 60.004 51.454
19.510 60.400 44.418
20.630 60.717 36.890
21.810 60.931 28.917
23.060 61.016 20.410
24.380 60.933 11.341
25.780 60.622 1.616
27.260 59.990 -8.788
28.820 58.884 -19.871
30.470 56.999 -31.652
32.220 53.582 -43.993
34.060 45.572 -55.395
36.010 43.689 103.108
38.080 54.598 91.608
40.260 59.476 77.555
42.560 62.586 63.296
45.000 64.798 49.134
47.580 66.446 35.280
50.310 67.711 21.786
53.190 68.701 8.684
56.230 69.492 -4.079
59.460 70.138 -16.650
62.860 70.670 -28.984
66.460 71.116 -41.228
70.270 71.495 -53.447
74.300 71.820 -65.700
78.550 72.102 -78.012
83.050 72.350 -90.491
87.810 72.570 -103.179
92.840 72.767 -116.117
98.160 72.946 -129.366
103.780 73.112 -142.960
109.730 73.267 -156.980
116.020 73.415 -171.456
122.660 73.559 173.581
129.690 73.702 158.031
137.120 73.847 141.864
144.970 73.995 125.023
153.280 74.151 107.411
162.060 74.315 88.988
171.340 74.490 69.674
181.160 74.677 49.363
191.540 74.878 27.989
202.510 75.090 5.466
214.110 75.315 -18.314
226.380 75.549 -43.459
239.350 75.790 -70.050
253.060 76.033 -98.184
267.560 76.274 -127.971
282.890 76.507 -159.489
299.090 76.727 167.195
316.230 76.929 131.968
334.340 77.109 94.810
353.500 77.265 55.614
373.750 77.401 14.362
395.160 77.521 -29.020
417.800 77.639 -74.620
441.730 77.772 -122.540
467.040 77.943 -173.012
493.800 78.173 133.671
522.090 78.466 77.100
552.000 78.803 16.828
583.620 79.140 -47.483
617.050 79.423 -115.992
652.400 79.614 171.302
689.780 79.697 94.496
729.290 79.682 13.705
771.080 79.602 -71.150
815.250 79.504 -160.223
861.950 79.419 106.045
911.330 79.350 7.178
963.540 79.287 -97.121
1018.740 79.255 152.972
1077.110 79.326 36.877
1138.810 79.502 -86.514
1204.050 79.678 141.745
1273.030 79.709 1.639
1345.960 79.552 -146.620
1423.070 79.232 57.058
1504.590 78.801 -107.664
1590.790 78.243 78.497
1681.920 77.526 -104.298
1778.280 76.793 63.593
1880.150 76.040 -139.360
1987.870 75.139 6.982
2101.750 74.351 142.624
2222.150 73.748 -95.286
2349.460 73.020 11.820
2484.060 72.088 104.510
2626.360 71.010 -177.321
2776.820 69.964 -115.152
2935.900 68.816 -71.475
3104.100 67.306 -47.337
3281.930 65.232 -43.041
3469.940 62.455 -59.417
3668.730 58.661 -100.995
3878.910 51.675 -178.448
4101.130 45.637 -0.131
4336.070 53.269 -149.615
4584.480 55.790 69.866
4847.120 57.068 -87.631
5124.810 58.028 85.183
5418.400 58.370 -133.038
5728.810 58.451 -25.778
6057.010 57.710 45.247
6404.000 56.411 78.722
6770.880 53.923 69.903
7158.770 48.986 24.307
7568.890 39.446 -55.975
8002.500 38.117 -49.184
8460.950 46.018 133.604
8945.670 48.307 -104.518
9458.160 47.574 -36.249
10000.000 45.748 -24.067
