# Freq(Hz) SPL(dB) Phase (degrees)
10.000 52.265 107.734
10.570 53.062 103.747
11.180 53.851 99.499
11.820 54.612 95.059
12.500 55.355 90.362
13.210 56.062 85.477
13.970 56.750 80.268
14.770 57.402 74.804
15.620 58.020 69.016
16.510 58.590 62.969
17.460 59.116 56.523
18.460 59.582 49.738
19.510 59.978 42.604
20.630 60.294 34.971
21.810 60.507 26.888
23.060 60.592 18.264
24.380 60.508 9.073
25.780 60.195 -0.783
27.260 59.563 -11.325
28.820 58.456 -22.553
30.470 56.569 -34.489
32.220 53.151 -46.993
34.060 45.139 -58.567
36.010 43.254 99.753
38.080 54.161 88.059
40.260 59.036 73.802
42.560 62.144 59.327
45.000 64.354 44.937
47.580 65.998 30.841
50.310 67.259 17.090
53.190 68.244 3.718
56.230 69.030 -9.330
59.460 69.671 -22.205
62.860 70.196 -34.858
66.460 70.635 -47.440
70.270 71.005 -60.017
74.300 71.321 -72.647
78.550 71.592 -85.356
83.050 71.827 -98.255
87.810 72.033 -111.385
92.840 72.214 -124.787
98.160 72.375 -138.524
103.780 72.519 -152.628
109.730 72.650 -167.181
116.020 72.771 177.789
122.660 72.884 162.251
129.690 72.992 146.108
137.120 73.097 129.332
144.970 73.203 111.871
153.280 73.312 93.629
162.060 73.425 74.574
171.340 73.546 54.628
181.160 73.676 33.689
191.540 73.818 11.696
202.510 73.973 -11.437
214.110 74.141 -35.820
226.380 74.322 -61.565
239.350 74.516 -88.762
253.060 74.719 -117.524
267.560 74.929 -147.980
282.890 75.141 179.765
299.090 75.350 145.616
316.230 75.548 109.420
334.340 75.728 71.123
353.500 75.883 30.579
373.750 76.006 -12.255
395.160 76.088 -57.466
417.800 76.127 -105.111
441.730 76.123 -155.201
467.040 76.086 152.198
493.800 76.038 97.033
522.090 76.011 39.134
552.000 76.033 -21.833
583.620 76.111 -86.307
617.050 76.225 -154.723
652.400 76.338 132.609
689.780 76.415 55.545
729.290 76.437 -25.931
771.080 76.400 -111.883
815.250 76.327 157.738
861.950 76.271 62.787
911.330 76.310 -37.195
963.540 76.495 -143.163
1018.740 76.776 103.702
1077.110 76.998 -17.296
1138.810 77.017 -145.815
1204.050 76.880 78.847
1273.030 76.705 -63.646
1345.960 76.524 145.515
1423.070 76.222 -14.391
1504.590 75.712 176.769
1590.790 75.023 -0.493
1681.920 74.373 173.592
1778.280 73.851 -23.164
1880.150 73.269 128.226
1987.870 72.666 -92.568
2101.750 71.989 32.301
2222.150 70.822 142.171
2349.460 69.028 -120.713
2484.060 66.916 -36.118
2626.360 64.535 34.315
2776.820 61.778 88.587
2935.900 57.949 125.799
3104.100 52.181 151.519
3281.930 43.786 -162.859
3469.940 46.667 -98.589
3668.730 53.380 -126.033
3878.910 56.184 164.258
4101.130 56.733 71.638
4336.070 56.883 -41.716
4584.480 57.100 174.107
4847.120 56.136 -3.588
5124.810 54.054 150.412
5418.400 51.075 -91.049
5728.810 45.579 -13.200
6057.010 38.662 -22.266
6404.000 45.437 -81.993
6770.880 48.232 -125.165
7158.770 49.541 158.594
7568.890 48.090 34.728
8002.500 43.752 -139.262
8460.950 33.058 -28.191
8945.670 40.386 -44.481
9458.160 43.860 -24.817
10000.000 43.379 -53.966
