# Freq(Hz) SPL(dB) Phase (degrees)
10.000 52.923 109.173
10.570 53.720 105.268
11.180 54.509 101.107
11.820 55.271 96.760
12.500 56.013 92.161
13.210 56.721 87.378
13.970 57.409 82.279
14.770 58.062 76.930
15.620 58.680 71.264
16.510 59.250 65.345
17.460 59.777 59.036
18.460 60.244 52.395
19.510 60.640 45.412
20.630 60.958 37.941
21.810 61.172 30.028
23.060 61.257 21.584
24.380 61.174 12.583
25.780 60.863 2.929
27.260 60.232 -7.399
28.820 59.127 -18.403
30.470 57.242 -30.100
32.220 53.826 -42.352
34.060 45.816 -53.660
36.010 43.934 104.942
38.080 54.843 93.547
40.260 59.723 79.605
42.560 62.833 65.463
45.000 65.048 51.425
47.580 66.697 37.702
50.310 67.963 24.346
53.190 68.955 11.390
56.230 69.748 -1.219
59.460 70.397 -13.627
62.860 70.931 -25.790
66.460 71.380 -37.854
70.270 71.763 -49.882
74.300 72.092 -61.935
78.550 72.378 -74.037
83.050 72.631 -86.295
87.810 72.857 -98.753
92.840 73.061 -111.449
98.160 73.248 -124.446
103.780 73.421 -137.778
109.730 73.586 -151.526
116.020 73.744 -165.722
122.660 73.899 179.603
129.690 74.053 164.348
137.120 74.210 148.481
144.970 74.372 131.946
153.280 74.540 114.641
162.060 74.717 96.528
171.340 74.904 77.524
181.160 75.101 57.524
191.540 75.308 36.465
202.510 75.524 14.262
214.110 75.747 -9.190
226.380 75.974 -33.988
239.350 76.200 -60.207
253.060 76.422 -87.933
267.560 76.633 -117.262
282.890 76.827 -148.256
299.090 77.000 179.036
316.230 77.148 144.522
334.340 77.268 108.202
353.500 77.363 69.989
373.750 77.439 29.881
395.160 77.509 -12.199
417.800 77.591 -56.356
441.730 77.710 -102.745
467.040 77.886 -151.674
493.800 78.130 156.494
522.090 78.428 101.336
552.000 78.741 42.501
583.620 79.015 -20.159
617.050 79.212 -86.582
652.400 79.326 -156.600
689.780 79.395 129.890
729.290 79.481 52.774
771.080 79.639 -28.472
815.250 79.887 -114.477
861.950 80.192 154.098
911.330 80.501 56.891
963.540 80.791 -46.238
1018.740 81.085 -155.608
1077.110 81.374 87.974
1138.810 81.539 -36.168
1204.050 81.439 -167.748
1273.030 81.064 53.939
1345.960 80.523 -90.837
1423.070 79.908 117.513
1504.590 79.283 -41.384
1590.790 78.787 151.786
1681.920 78.479 -24.805
1778.280 78.180 147.326
1880.150 77.706 -51.630
1987.870 77.132 98.738
2101.750 76.521 -122.599
2222.150 75.856 3.936
2349.460 75.175 117.409
2484.060 74.505 -143.053
2626.360 73.800 -58.924
2776.820 72.936 9.450
2935.900 72.030 61.733
3104.100 71.110 95.680
3281.930 69.987 110.003
3469.940 68.585 104.475
3668.730 66.852 77.030
3878.910 64.458 26.378
4101.130 60.785 -45.706
4336.070 56.279 -135.973
4584.480 49.929 103.277
4847.120 32.944 135.443
5124.810 49.794 -49.715
5418.400 53.824 104.508
5728.810 55.924 -132.818
6057.010 57.351 -46.389
6404.000 57.547 2.007
6770.880 57.282 13.169
7158.770 56.170 -19.077
7568.890 53.758 -92.792
8002.500 50.099 151.512
8460.950 43.689 -12.396
8945.670 27.202 -143.903
9458.160 42.221 25.202
10000.000 46.409 62.456
