# Freq(Hz) SPL(dB) Phase (degrees)
10.000 50.614 103.587
10.570 51.412 99.364
11.180 52.201 94.863
11.820 52.963 90.158
12.500 53.705 85.178
13.210 54.413 79.998
13.970 55.101 74.474
14.770 55.753 68.678
15.620 56.372 62.536
16.510 56.942 56.119
17.460 57.469 49.278
18.460 57.936 42.077
19.510 58.332 34.507
20.630 58.649 26.407
21.810 58.863 17.833
23.060 58.948 8.689
24.380 58.865 -1.053
25.780 58.554 -11.493
27.260 57.923 -22.653
28.820 56.817 -34.533
30.470 54.932 -47.159
32.220 51.516 -60.396
34.060 43.506 -72.741
36.010 41.623 84.761
38.080 52.532 72.197
40.260 57.410 57.023
42.560 60.520 41.578
45.000 62.733 26.157
47.580 64.380 10.970
50.310 65.644 -3.939
53.190 66.633 -18.536
56.230 67.423 -32.881
59.460 68.068 -47.137
62.860 68.597 -61.249
66.460 69.040 -75.382
70.270 69.414 -89.605
74.300 69.734 -103.983
78.550 70.009 -118.545
83.050 70.247 -133.414
87.810 70.456 -148.638
92.840 70.638 -164.263
98.160 70.799 179.637
103.780 70.941 163.023
109.730 71.067 145.799
116.020 71.180 127.931
122.660 71.280 109.384
129.690 71.370 90.043
137.120 71.451 69.876
144.970 71.524 48.825
153.280 71.590 26.779
162.060 71.649 3.708
171.340 71.703 -20.469
181.160 71.751 -45.861
191.540 71.794 -72.521
202.510 71.831 -100.531
214.110 71.863 -129.994
226.380 71.889 -161.014
239.350 71.908 166.334
253.060 71.919 131.950
267.560 71.922 95.712
282.890 71.915 57.525
299.090 71.899 17.299
316.230 71.873 -25.133
334.340 71.837 -69.836
353.500 71.792 -117.001
373.750 71.739 -166.728
395.160 71.680 140.803
417.800 71.615 85.399
441.730 71.540 26.883
467.040 71.450 -34.997
493.800 71.333 -100.421
522.090 71.171 -169.546
552.000 70.950 117.525
583.620 70.665 40.759
617.050 70.328 -39.880
652.400 69.968 -124.508
689.780 69.623 146.647
729.290 69.330 53.270
771.080 69.119 -45.164
815.250 69.014 -149.135
861.950 69.023 100.678
911.330 69.139 -16.467
963.540 69.323 -141.326
1018.740 69.505 85.427
1077.110 69.580 -56.742
1138.810 69.424 152.088
1204.050 69.016 -7.452
1273.030 68.374 -175.404
1345.960 67.573 8.010
1423.070 66.636 -177.703
1504.590 65.542 -12.894
1590.790 64.360 142.506
1681.920 63.275 -71.625
1778.280 62.548 62.380
1880.150 62.042 -178.330
1987.870 61.477 -75.275
2101.750 60.653 11.214
2222.150 59.260 80.332
2349.460 57.117 133.106
2484.060 53.973 170.974
2626.360 49.683 -163.027
2776.820 44.199 -141.192
2935.900 40.964 -106.016
3104.100 44.058 -103.371
3281.930 47.852 -153.677
3469.940 50.249 120.259
3668.730 51.215 2.319
3878.910 50.539 -142.655
4101.130 48.797 49.142
4336.070 47.347 -143.169
4584.480 45.667 -13.227
4847.120 42.026 79.079
5124.810 35.451 150.169
5418.400 29.229 -115.975
5728.810 34.244 -88.670
6057.010 36.892 -137.747
6404.000 36.896 117.212
6770.880 35.783 -31.044
7158.770 31.301 129.436
7568.890 23.555 -92.321
8002.500 21.036 53.861
8460.950 27.095 80.908
8945.670 28.315 36.515
9458.160 24.417 -98.501
10000.000 17.501 55.086
