# Freq(Hz) SPL(dB) Phase (degrees)
10.000 52.150 107.471
10.570 52.948 103.470
11.180 53.736 99.205
11.820 54.498 94.749
12.500 55.240 90.034
13.210 55.947 85.130
13.970 56.635 79.901
14.770 57.287 74.416
15.620 57.905 68.606
16.510 58.475 62.535
17.460 59.001 56.064
18.460 59.467 49.253
19.510 59.862 42.091
20.630 60.179 34.429
21.810 60.392 26.315
23.060 60.476 17.658
24.380 60.392 8.432
25.780 60.079 -1.461
27.260 59.446 -12.042
28.820 58.339 -23.312
30.470 56.452 -35.291
32.220 53.034 -47.842
34.060 45.021 -59.464
36.010 43.136 98.804
38.080 54.042 87.056
40.260 58.918 72.741
42.560 62.024 58.205
45.000 64.234 43.750
47.580 65.877 29.585
50.310 67.137 15.761
53.190 68.122 2.312
56.230 68.907 -10.818
59.460 69.546 -23.779
62.860 70.070 -36.523
66.460 70.507 -49.202
70.270 70.876 -61.881
74.300 71.190 -74.620
78.550 71.458 -87.444
83.050 71.690 -100.464
87.810 71.893 -113.722
92.840 72.070 -127.260
98.160 72.227 -141.138
103.780 72.366 -155.392
109.730 72.491 -170.103
116.020 72.605 174.701
122.660 72.711 158.991
129.690 72.810 142.668
137.120 72.906 125.706
144.970 73.000 108.054
153.280 73.096 89.616
162.060 73.195 70.361
171.340 73.301 50.214
181.160 73.415 29.074
191.540 73.539 6.882
202.510 73.675 -16.447
214.110 73.825 -41.021
226.380 73.988 -66.953
239.350 74.164 -94.333
253.060 74.352 -123.276
267.560 74.549 -153.916
282.890 74.752 173.638
299.090 74.954 139.279
316.230 75.149 102.849
334.340 75.331 64.281
353.500 75.490 23.415
373.750 75.617 -19.805
395.160 75.704 -65.477
417.800 75.742 -113.668
441.730 75.728 -164.391
467.040 75.666 142.306
493.800 75.571 86.410
522.090 75.474 27.822
552.000 75.405 -33.710
583.620 75.388 -98.569
617.050 75.416 -167.200
652.400 75.465 120.022
689.780 75.506 42.861
729.290 75.515 -38.793
771.080 75.478 -125.073
815.250 75.401 144.064
861.950 75.322 48.579
911.330 75.330 -51.819
963.540 75.515 -158.052
1018.740 75.854 88.404
1077.110 76.165 -33.535
1138.810 76.230 -163.619
1204.050 76.026 59.290
1273.030 75.690 -84.534
1345.960 75.348 124.007
1423.070 74.963 -36.181
1504.590 74.437 154.520
1590.790 73.734 -23.471
1681.920 73.082 150.038
1778.280 72.670 -47.490
1880.150 72.218 101.815
1987.870 71.534 -121.762
2101.750 70.638 1.291
2222.150 69.327 109.896
2349.460 67.379 -154.649
2484.060 65.077 -71.387
2626.360 62.522 -3.196
2776.820 59.179 47.912
2935.900 53.914 82.960
3104.100 42.759 124.349
3281.930 46.206 -122.163
3469.940 52.813 -132.328
3668.730 56.546 -177.964
3878.910 58.071 106.145
4101.130 57.950 9.298
4336.070 57.681 -108.755
4584.480 57.348 100.278
4847.120 55.396 -82.461
5124.810 52.201 68.849
5418.400 47.577 -174.616
5728.810 36.786 -96.214
6057.010 39.071 155.981
6404.000 46.304 149.251
6770.880 48.026 114.569
7158.770 48.324 36.816
7568.890 45.850 -89.955
8002.500 40.174 89.880
8460.950 29.818 142.860
8945.670 40.318 166.310
9458.160 41.974 -176.353
10000.000 40.580 145.154
