# Freq(Hz) SPL(dB) Phase (degrees)
10.000 50.651 103.687
10.570 51.448 99.470
11.180 52.237 94.974
11.820 52.999 90.276
12.500 53.742 85.303
13.210 54.450 80.130
13.970 55.138 74.613
14.770 55.790 68.825
15.620 56.408 62.692
16.510 56.979 56.284
17.460 57.505 49.452
18.460 57.972 42.261
19.510 58.369 34.701
20.630 58.686 26.613
21.810 58.900 18.051
23.060 58.985 8.919
24.380 58.902 -0.810
25.780 58.591 -11.236
27.260 57.960 -22.381
28.820 56.854 -34.246
30.470 54.970 -46.855
32.220 51.553 -60.075
34.060 43.543 -72.402
36.010 41.660 85.120
38.080 52.569 72.577
40.260 57.448 57.424
42.560 60.558 42.002
45.000 62.771 26.605
47.580 64.418 11.443
50.310 65.683 -3.439
53.190 66.673 -18.007
56.230 67.463 -32.323
59.460 68.108 -46.547
62.860 68.637 -60.626
66.460 69.081 -74.723
70.270 69.456 -88.909
74.300 69.776 -103.248
78.550 70.051 -117.768
83.050 70.291 -132.594
87.810 70.500 -147.772
92.840 70.683 -163.349
98.160 70.845 -179.399
103.780 70.988 164.040
109.730 71.116 146.872
116.020 71.230 129.063
122.660 71.332 110.577
129.690 71.424 91.299
137.120 71.507 71.198
144.970 71.582 50.216
153.280 71.650 28.241
162.060 71.712 5.244
171.340 71.769 -18.858
181.160 71.820 -44.172
191.540 71.866 -70.754
202.510 71.907 -98.684
214.110 71.942 -128.067
226.380 71.971 -159.007
239.350 71.993 168.420
253.060 72.006 134.115
267.560 72.011 97.955
282.890 72.005 59.847
299.090 71.988 19.699
316.230 71.959 -22.652
334.340 71.918 -67.271
353.500 71.865 -114.346
373.750 71.801 -163.973
395.160 71.727 143.670
417.800 71.643 88.397
441.730 71.544 30.036
467.040 71.423 -31.652
493.800 71.267 -96.829
522.090 71.057 -165.617
552.000 70.781 121.936
583.620 70.442 45.874
617.050 70.070 -33.785
652.400 69.727 -117.204
689.780 69.474 155.183
729.290 69.348 62.729
771.080 69.343 -35.363
815.250 69.425 -139.640
861.950 69.554 109.390
911.330 69.698 -8.704
963.540 69.828 -134.387
1018.740 69.899 91.820
1077.110 69.828 -50.595
1138.810 69.509 158.403
1204.050 68.870 -0.945
1273.030 67.962 -168.036
1345.960 66.874 17.198
1423.070 65.733 -165.332
1504.590 64.744 3.446
1590.790 63.966 161.736
1681.920 63.333 -52.073
1778.280 62.794 81.289
1880.150 62.367 -159.550
1987.870 61.901 -56.780
2101.750 61.070 28.865
2222.150 59.472 97.246
2349.460 56.958 150.627
2484.060 53.475 -169.341
2626.360 48.940 -139.785
2776.820 43.623 -113.277
2935.900 40.512 -76.439
3104.100 44.339 -73.004
3281.930 48.322 -124.741
3469.940 50.295 147.412
3668.730 50.377 31.239
3878.910 49.155 -104.540
4101.130 48.592 95.213
4336.070 48.090 -101.283
4584.480 45.883 23.498
4847.120 41.782 119.832
5124.810 34.230 -163.354
5418.400 28.232 -60.799
5728.810 34.616 -37.152
6057.010 36.132 -89.895
6404.000 35.320 175.665
6770.880 33.722 20.720
7158.770 29.363 -161.260
7568.890 21.691 -14.545
8002.500 18.189 134.621
8460.950 25.375 172.859
8945.670 29.550 98.931
9458.160 22.051 -12.786
10000.000 16.202 -166.712
