# Freq(Hz) SPL(dB) Phase (degrees)
10.000 52.856 109.031
10.570 53.653 105.118
11.180 54.442 100.948
11.820 55.204 96.592
12.500 55.946 91.983
13.210 56.654 87.190
13.970 57.342 82.080
14.770 57.995 76.720
15.620 58.613 71.042
16.510 59.184 65.111
17.460 59.710 58.788
18.460 60.177 52.133
19.510 60.574 45.135
20.630 60.891 37.648
21.810 61.105 29.718
23.060 61.191 21.257
24.380 61.108 12.237
25.780 60.797 2.563
27.260 60.166 -7.786
28.820 59.060 -18.812
30.470 57.176 -30.532
32.220 53.760 -42.809
34.060 45.750 -54.143
36.010 43.868 104.431
38.080 54.778 93.008
40.260 59.657 79.035
42.560 62.768 64.860
45.000 64.983 50.788
47.580 66.632 37.030
50.310 67.899 23.635
53.190 68.891 10.639
56.230 69.684 -2.012
59.460 70.333 -14.465
62.860 70.868 -26.675
66.460 71.318 -38.788
70.270 71.701 -50.868
74.300 72.030 -62.974
78.550 72.317 -75.133
83.050 72.571 -87.452
87.810 72.798 -99.971
92.840 73.002 -112.732
98.160 73.190 -125.797
103.780 73.365 -139.199
109.730 73.531 -153.020
116.020 73.692 -167.290
122.660 73.849 177.957
129.690 74.006 162.624
137.120 74.167 146.676
144.970 74.333 130.058
153.280 74.507 112.669
162.060 74.690 94.470
171.340 74.885 75.377
181.160 75.093 55.286
191.540 75.313 34.131
202.510 75.545 11.826
214.110 75.787 -11.734
226.380 76.036 -36.652
239.350 76.290 -63.003
253.060 76.543 -90.879
267.560 76.791 -120.378
282.890 77.029 -151.568
299.090 77.251 175.496
316.230 77.456 140.714
334.340 77.641 104.077
353.500 77.810 65.484
373.750 77.970 24.914
395.160 78.132 -17.730
417.800 78.315 -62.581
441.730 78.539 -109.816
467.040 78.823 -159.756
493.800 79.172 147.233
522.090 79.573 90.727
552.000 79.987 30.349
583.620 80.361 -34.115
617.050 80.645 -102.700
652.400 80.812 -175.320
689.780 80.858 108.154
729.290 80.810 27.811
771.080 80.709 -56.508
815.250 80.596 -145.069
861.950 80.486 121.621
911.330 80.357 23.153
963.540 80.191 -80.586
1018.740 80.030 170.374
1077.110 79.964 55.422
1138.810 79.986 -66.610
1204.050 79.962 163.505
1273.030 79.805 26.110
1345.960 79.571 -118.683
1423.070 79.320 88.554
1504.590 79.050 -73.004
1590.790 78.689 115.894
1681.920 78.159 -64.749
1778.280 77.457 105.165
1880.150 76.642 -94.123
1987.870 75.937 57.248
2101.750 75.547 -162.983
2222.150 75.357 -36.872
2349.460 75.208 74.082
2484.060 74.917 169.608
2626.360 74.443 -110.519
2776.820 73.747 -46.551
2935.900 72.892 1.030
3104.100 71.900 31.178
3281.930 70.708 43.097
3469.940 69.316 36.440
3668.730 68.086 11.046
3878.910 67.126 -38.824
4101.130 65.754 -115.518
4336.070 63.505 141.891
4584.480 60.317 15.790
4847.120 56.020 -135.014
5124.810 49.108 50.374
5418.400 40.010 -66.793
5728.810 49.621 95.068
6057.010 54.360 -179.812
6404.000 56.305 -140.116
6770.880 56.890 -136.901
7158.770 56.851 -174.394
7568.890 55.974 105.220
8002.500 54.563 -21.307
8460.950 52.049 162.110
8945.670 47.965 -65.608
9458.160 39.719 27.169
10000.000 32.575 -177.720
