# Freq(Hz) SPL(dB) Phase (degrees)
10.000 50.477 103.203
10.570 51.275 98.958
11.180 52.063 94.433
11.820 52.825 89.703
12.500 53.568 84.697
13.210 54.276 79.491
13.970 54.964 73.937
14.770 55.617 68.110
15.620 56.235 61.936
16.510 56.806 55.484
17.460 57.333 48.607
18.460 57.800 41.367
19.510 58.197 33.756
20.630 58.514 25.614
21.810 58.729 16.994
23.060 58.815 7.801
24.380 58.732 -1.991
25.780 58.422 -12.485
27.260 57.791 -23.702
28.820 56.686 -35.643
30.470 54.802 -48.332
32.220 51.386 -61.637
34.060 43.377 -74.053
36.010 41.495 83.373
38.080 52.405 70.730
40.260 57.285 55.470
42.560 60.397 39.937
45.000 62.611 24.420
47.580 64.260 9.132
50.310 65.527 -5.883
53.190 66.519 -20.593
56.230 67.311 -35.057
59.460 67.959 -49.440
62.860 68.491 -63.685
66.460 68.938 -77.960
70.270 69.317 -92.334
74.300 69.642 -106.872
78.550 69.922 -121.603
83.050 70.166 -136.652
87.810 70.381 -152.068
92.840 70.571 -167.897
98.160 70.740 175.787
103.780 70.892 158.943
109.730 71.028 141.475
116.020 71.152 123.346
122.660 71.266 104.522
129.690 71.370 84.883
137.120 71.467 64.399
144.970 71.558 43.009
153.280 71.643 20.600
162.060 71.725 -2.860
171.340 71.803 -27.455
181.160 71.878 -53.296
191.540 71.952 -80.441
202.510 72.023 -108.974
214.110 72.092 -139.003
226.380 72.159 -170.638
239.350 72.224 156.040
253.060 72.286 120.926
267.560 72.344 83.889
282.890 72.398 44.826
299.090 72.448 3.635
316.230 72.492 -39.861
334.340 72.532 -85.739
353.500 72.568 -134.204
373.750 72.600 174.633
395.160 72.629 120.577
417.800 72.654 63.424
441.730 72.673 2.985
467.040 72.680 -61.015
493.800 72.663 -128.792
522.090 72.607 159.437
552.000 72.492 83.486
583.620 72.301 3.238
617.050 72.026 -81.405
652.400 71.673 -170.575
689.780 71.253 95.535
729.290 70.777 -3.314
771.080 70.246 -107.527
815.250 69.649 142.646
861.950 68.967 26.933
911.330 68.195 -94.812
963.540 67.351 137.318
1018.740 66.480 3.089
1077.110 65.641 -137.987
1138.810 64.880 73.397
1204.050 64.188 -83.683
1273.030 63.537 110.016
1345.960 62.887 -65.965
1423.070 62.201 108.020
1504.590 61.562 -88.433
1590.790 61.076 63.506
1681.920 60.662 -158.394
1778.280 60.048 -35.257
1880.150 59.064 73.260
1987.870 57.682 167.107
2101.750 55.873 -114.092
2222.150 53.590 -51.508
2349.460 50.613 -6.263
2484.060 46.383 21.458
2626.360 40.123 34.022
2776.820 29.767 47.698
2935.900 26.543 107.410
3104.100 24.204 80.685
3281.930 22.165 158.393
3469.940 35.372 64.308
3668.730 40.575 -67.776
3878.910 42.527 130.343
4101.130 42.717 -57.998
4336.070 41.067 89.012
4584.480 38.144 -151.328
4847.120 34.650 -57.820
5124.810 29.506 15.383
5418.400 26.713 83.059
5728.810 32.087 90.738
6057.010 35.756 13.939
6404.000 35.087 -119.462
6770.880 28.546 74.456
7158.770 23.788 -159.020
7568.890 13.595 -17.039
8002.500 13.353 115.403
8460.950 10.818 99.063
8945.670 10.501 116.785
9458.160 19.415 -25.001
10000.000 13.364 136.248
