# Freq(Hz) SPL(dB) Phase (degrees)
10.000 52.377 107.986
10.570 53.174 104.014
11.180 53.963 99.781
11.820 54.724 95.358
12.500 55.467 90.677
13.210 56.174 85.811
13.970 56.862 80.621
14.770 57.514 75.177
15.620 58.132 69.410
16.510 58.702 63.386
17.460 59.228 56.963
18.460 59.695 50.204
19.510 60.090 43.097
20.630 60.407 35.492
21.810 60.620 27.439
23.060 60.705 18.847
24.380 60.621 9.689
25.780 60.309 -0.132
27.260 59.676 -10.636
28.820 58.570 -21.825
30.470 56.684 -33.719
32.220 53.266 -46.178
34.060 45.254 -57.705
36.010 43.369 100.664
38.080 54.276 89.024
40.260 59.153 74.822
42.560 62.261 60.406
45.000 64.471 46.078
47.580 66.116 32.048
50.310 67.378 18.367
53.190 68.365 5.069
56.230 69.152 -7.902
59.460 69.794 -20.693
62.860 70.321 -33.259
66.460 70.761 -45.749
70.270 71.133 -58.228
74.300 71.452 -70.754
78.550 71.725 -83.354
83.050 71.963 -96.137
87.810 72.172 -109.146
92.840 72.357 -122.419
98.160 72.523 -136.020
103.780 72.672 -149.983
109.730 72.810 -164.387
116.020 72.937 -179.262
122.660 73.058 165.361
129.690 73.175 149.386
137.120 73.291 132.783
144.970 73.408 115.500
153.280 73.529 97.438
162.060 73.656 78.566
171.340 73.791 58.803
181.160 73.938 38.046
191.540 74.096 16.234
202.510 74.268 -6.723
214.110 74.453 -30.932
226.380 74.650 -56.507
239.350 74.859 -83.535
253.060 75.075 -112.127
267.560 75.296 -142.406
282.890 75.516 -174.472
299.090 75.728 151.588
316.230 75.928 115.633
334.340 76.107 77.618
353.500 76.259 37.410
373.750 76.379 -5.025
395.160 76.463 -49.763
417.800 76.510 -96.858
441.730 76.527 -146.332
467.040 76.530 161.722
493.800 76.544 107.197
522.090 76.598 49.844
552.000 76.713 -10.739
583.620 76.879 -75.011
617.050 77.062 -143.359
652.400 77.219 143.992
689.780 77.315 66.985
729.290 77.338 -14.329
771.080 77.296 -99.983
815.250 77.223 170.038
861.950 77.175 75.485
911.330 77.212 -24.191
963.540 77.354 -129.829
1018.740 77.551 117.719
1077.110 77.703 -2.007
1138.810 77.739 -128.856
1204.050 77.727 97.215
1273.030 77.705 -44.522
1345.960 77.616 164.944
1423.070 77.336 5.411
1504.590 76.825 -162.754
1590.790 76.150 20.682
1681.920 75.454 -164.678
1778.280 74.801 -0.142
1880.150 74.190 153.525
1987.870 73.703 -65.366
2101.750 73.093 60.942
2222.150 71.980 172.909
2349.460 70.374 -87.832
2484.060 68.450 -1.356
2626.360 66.369 71.623
2776.820 64.157 128.318
2935.900 61.375 167.635
3104.100 57.767 -169.356
3281.930 53.163 -159.792
3469.940 46.045 -166.799
3668.730 39.510 -68.842
3878.910 51.380 -123.448
4101.130 54.469 144.381
4336.070 55.431 33.661
4584.480 56.873 -105.392
4847.120 57.089 79.115
5124.810 55.843 -126.343
5418.400 53.658 -5.744
5728.810 49.356 74.973
6057.010 43.099 93.089
6404.000 45.623 24.378
6770.880 49.385 -23.707
7158.770 50.779 -93.530
7568.890 50.066 151.631
8002.500 47.197 -5.429
8460.950 40.791 153.553
8945.670 28.902 -8.416
9458.160 40.622 94.592
10000.000 43.204 92.167
