# Freq(Hz) SPL(dB) Phase (degrees)
10.000 52.245 107.689
10.570 53.043 103.700
11.180 53.831 99.449
11.820 54.593 95.006
12.500 55.335 90.306
13.210 56.042 85.418
13.970 56.730 80.206
14.770 57.382 74.738
15.620 58.000 68.946
16.510 58.569 62.895
17.460 59.095 56.444
18.460 59.562 49.655
19.510 59.957 42.516
20.630 60.273 34.878
21.810 60.486 26.790
23.060 60.571 18.161
24.380 60.486 8.963
25.780 60.174 -0.899
27.260 59.541 -11.448
28.820 58.434 -22.684
30.470 56.547 -34.627
32.220 53.129 -47.140
34.060 45.116 -58.723
36.010 43.231 99.588
38.080 54.137 87.885
40.260 59.012 73.617
42.560 62.119 59.131
45.000 64.328 44.728
47.580 65.971 30.619
50.310 67.231 16.854
53.190 68.216 3.468
56.230 69.001 -9.597
59.460 69.640 -22.489
62.860 70.164 -35.161
66.460 70.601 -47.763
70.270 70.970 -60.361
74.300 71.283 -73.015
78.550 71.552 -85.750
83.050 71.784 -98.676
87.810 71.986 -111.836
92.840 72.164 -125.271
98.160 72.320 -139.042
103.780 72.459 -153.184
109.730 72.584 -167.778
116.020 72.698 177.146
122.660 72.803 161.560
129.690 72.902 145.366
137.120 72.997 128.535
144.970 73.089 111.016
153.280 73.183 92.714
162.060 73.279 73.597
171.340 73.380 53.588
181.160 73.487 32.588
191.540 73.602 10.538
202.510 73.726 -12.647
214.110 73.859 -37.071
226.380 74.002 -62.844
239.350 74.152 -90.053
253.060 74.308 -118.807
267.560 74.467 -149.233
282.890 74.623 178.566
299.090 74.772 144.494
316.230 74.905 108.399
334.340 75.016 70.224
353.500 75.095 29.824
373.750 75.131 -12.842
395.160 75.115 -57.847
417.800 75.039 -105.223
441.730 74.901 -154.935
467.040 74.710 153.026
493.800 74.495 98.698
522.090 74.303 41.993
552.000 74.188 -17.410
583.620 74.183 -80.053
617.050 74.279 -146.566
652.400 74.429 142.564
689.780 74.577 67.133
729.290 74.695 -12.819
771.080 74.799 -97.337
815.250 74.935 173.396
861.950 75.137 78.762
911.330 75.394 -22.030
963.540 75.642 -129.707
1018.740 75.768 115.183
1077.110 75.612 -7.428
1138.810 75.043 -136.541
1204.050 74.131 89.350
1273.030 73.223 -49.323
1345.960 72.566 165.504
1423.070 72.088 11.843
1504.590 71.700 -150.806
1590.790 71.453 36.596
1681.920 71.238 -147.638
1778.280 70.763 15.985
1880.150 69.914 169.177
1987.870 69.088 -47.658
2101.750 68.452 81.515
2222.150 67.456 -165.466
2349.460 65.807 -67.320
2484.060 63.382 16.235
2626.360 60.017 86.158
2776.820 55.674 141.113
2935.900 48.630 171.446
3104.100 41.321 76.763
3281.930 51.065 36.758
3469.940 55.779 10.131
3668.730 57.819 -39.733
3878.910 57.794 -105.801
4101.130 58.000 169.823
4336.070 57.989 53.304
4584.480 56.333 -89.895
4847.120 54.390 100.060
5124.810 50.340 -106.024
5418.400 41.652 12.745
5728.810 37.207 -49.850
6057.010 45.945 4.449
6404.000 49.859 17.496
6770.880 50.507 -2.708
7158.770 48.766 -73.722
7568.890 44.050 178.996
8002.500 29.245 -5.157
8460.950 39.079 -2.715
8945.670 43.824 106.230
9458.160 44.452 147.293
10000.000 39.816 130.562
