# Freq(Hz) SPL(dB) Phase (degrees)
10.000 53.044 109.426
10.570 53.842 105.536
11.180 54.631 101.391
11.820 55.393 97.060
12.500 56.136 92.478
13.210 56.844 87.713
13.970 57.532 82.633
14.770 58.184 77.305
15.620 58.803 71.660
16.510 59.374 65.764
17.460 59.901 59.479
18.460 60.368 52.863
19.510 60.764 45.907
20.630 61.082 38.464
21.810 61.297 30.582
23.060 61.383 22.170
24.380 61.300 13.202
25.780 60.990 3.583
27.260 60.359 -6.707
28.820 59.255 -17.671
30.470 57.371 -29.327
32.220 53.956 -41.534
34.060 45.947 -52.795
36.010 44.066 105.856
38.080 54.977 94.514
40.260 59.858 80.628
42.560 62.970 66.544
45.000 65.186 52.568
47.580 66.838 38.911
50.310 68.106 25.624
53.190 69.101 12.741
56.230 69.897 0.209
59.460 70.550 -12.118
62.860 71.088 -24.195
66.460 71.541 -36.168
70.270 71.929 -48.101
74.300 72.264 -60.053
78.550 72.557 -72.049
83.050 72.817 -84.197
87.810 73.051 -96.539
92.840 73.264 -109.114
98.160 73.461 -121.985
103.780 73.647 -135.188
109.730 73.824 -148.801
116.020 73.997 -162.858
122.660 74.168 -177.392
129.690 74.341 167.497
137.120 74.518 151.774
144.970 74.702 135.383
153.280 74.894 118.221
162.060 75.097 100.249
171.340 75.311 81.383
181.160 75.538 61.518
191.540 75.776 40.590
202.510 76.024 18.515
214.110 76.280 -4.809
226.380 76.542 -29.478
239.350 76.805 -55.562
253.060 77.064 -83.143
267.560 77.315 -112.308
282.890 77.554 -143.115
299.090 77.777 -175.606
316.230 77.985 150.131
334.340 78.178 114.093
353.500 78.365 76.178
373.750 78.559 36.348
395.160 78.776 -5.534
417.800 79.039 -49.667
441.730 79.362 -96.313
467.040 79.755 -145.866
493.800 80.204 161.281
522.090 80.677 104.752
552.000 81.124 44.283
583.620 81.488 -20.203
617.050 81.731 -88.624
652.400 81.840 -160.827
689.780 81.832 123.319
729.290 81.749 43.832
771.080 81.639 -39.572
815.250 81.537 -127.301
861.950 81.439 140.043
911.330 81.300 42.013
963.540 81.067 -61.524
1018.740 80.719 -170.458
1077.110 80.282 75.331
1138.810 79.834 -44.194
1204.050 79.464 -169.549
1273.030 79.226 58.471
1345.960 79.142 -81.071
1423.070 79.181 130.919
1504.590 79.296 -26.264
1590.790 79.427 166.561
1681.920 79.448 -10.797
1778.280 79.400 162.087
1880.150 79.417 -35.949
1987.870 79.328 113.732
2101.750 79.050 -108.213
2222.150 78.692 17.973
2349.460 78.326 131.529
2484.060 77.989 -128.642
2626.360 77.687 -43.453
2776.820 77.410 25.917
2935.900 77.141 78.569
3104.100 76.869 113.383
3281.930 76.560 129.301
3469.940 76.192 125.380
3668.730 75.725 100.415
3878.910 75.092 53.892
4101.130 74.447 -14.968
4336.070 73.820 -108.099
4584.480 73.222 132.351
4847.120 72.475 -14.770
5124.810 71.658 169.374
5418.400 70.783 -37.239
5728.810 69.705 83.540
6057.010 68.467 171.364
6404.000 67.295 -136.528
6770.880 66.075 -124.090
7158.770 64.337 -152.983
7568.890 62.273 137.075
8002.500 59.829 22.763
8460.950 57.108 -137.928
8945.670 53.421 9.198
9458.160 46.445 109.164
10000.000 38.684 -140.616
