# Freq(Hz) SPL(dB) Phase (degrees)
10.000 52.469 108.193
10.570 53.266 104.232
11.180 54.055 100.012
11.820 54.817 95.602
12.500 55.559 90.936
13.210 56.266 86.083
13.970 56.954 80.909
14.770 57.606 75.482
15.620 58.224 69.733
16.510 58.794 63.727
17.460 59.320 57.324
18.460 59.787 50.585
19.510 60.182 43.499
20.630 60.499 35.918
21.810 60.712 27.889
23.060 60.797 19.323
24.380 60.713 10.192
25.780 60.401 0.400
27.260 59.768 -10.074
28.820 58.661 -21.230
30.470 56.775 -33.090
32.220 53.357 -45.514
34.060 45.345 -57.003
36.010 43.461 101.407
38.080 54.368 89.808
40.260 59.244 75.651
42.560 62.352 61.282
45.000 64.562 47.004
47.580 66.207 33.027
50.310 67.469 19.402
53.190 68.455 6.162
56.230 69.242 -6.747
59.460 69.884 -19.473
62.860 70.410 -31.971
66.460 70.850 -44.388
70.270 71.223 -56.790
74.300 71.540 -69.237
78.550 71.814 -81.753
83.050 72.052 -94.448
87.810 72.260 -107.365
92.840 72.445 -120.542
98.160 72.610 -134.042
103.780 72.758 -147.900
109.730 72.895 -162.196
116.020 73.021 -176.959
122.660 73.141 167.780
129.690 73.256 151.924
137.120 73.369 135.442
144.970 73.483 118.282
153.280 73.600 100.346
162.060 73.722 81.601
171.340 73.851 61.967
181.160 73.988 41.341
191.540 74.134 19.663
202.510 74.290 -3.155
214.110 74.455 -27.219
226.380 74.629 -52.637
239.350 74.807 -79.494
253.060 74.988 -107.895
267.560 75.167 -137.957
282.890 75.336 -169.772
299.090 75.491 156.578
316.230 75.625 120.962
334.340 75.728 83.346
353.500 75.794 43.610
373.750 75.817 1.739
395.160 75.791 -42.315
417.800 75.716 -88.571
441.730 75.603 -137.002
467.040 75.472 172.347
493.800 75.362 119.397
522.090 75.317 63.883
552.000 75.364 5.336
583.620 75.498 -56.784
617.050 75.679 -122.903
652.400 75.861 166.781
689.780 76.019 92.274
729.290 76.170 13.622
771.080 76.363 -69.441
815.250 76.642 -157.444
861.950 76.995 108.760
911.330 77.348 8.473
963.540 77.600 -98.631
1018.740 77.659 147.418
1077.110 77.446 26.886
1138.810 76.957 -99.495
1204.050 76.312 128.795
1273.030 75.693 -8.984
1345.960 75.106 -153.797
1423.070 74.587 54.181
1504.590 74.323 -106.171
1590.790 74.242 82.407
1681.920 73.973 -100.768
1778.280 73.359 65.662
1880.150 72.615 -137.234
1987.870 72.012 8.701
2101.750 71.456 141.305
2222.150 70.835 -101.367
2349.460 69.659 -0.512
2484.060 67.637 86.317
2626.360 64.995 160.381
2776.820 61.847 -140.180
2935.900 57.698 -99.447
3104.100 50.554 -84.057
3281.930 40.681 154.814
3469.940 53.509 109.103
3668.730 58.026 60.815
3878.910 58.872 -4.436
4101.130 59.120 -81.656
4336.070 59.947 171.492
4584.480 59.307 34.094
4847.120 57.982 -127.459
5124.810 55.789 37.489
5418.400 51.657 172.503
5728.810 42.870 -82.106
6057.010 34.188 150.878
6404.000 47.384 -171.814
6770.880 50.523 177.953
7158.770 51.313 124.969
7568.890 49.332 28.631
8002.500 45.260 -110.353
8460.950 34.015 82.571
8945.670 36.326 -35.168
9458.160 42.849 43.254
10000.000 43.788 50.656
