# Freq(Hz) SPL(dB) Phase (degrees)
10.000 50.499 103.266
10.570 51.297 99.024
11.180 52.086 94.503
11.820 52.848 89.777
12.500 53.590 84.776
13.210 54.298 79.573
13.970 54.986 74.024
14.770 55.639 68.202
15.620 56.257 62.033
16.510 56.828 55.588
17.460 57.355 48.716
18.460 57.822 41.483
19.510 58.218 33.878
20.630 58.536 25.743
21.810 58.750 17.131
23.060 58.836 7.946
24.380 58.753 -1.839
25.780 58.443 -12.324
27.260 57.812 -23.532
28.820 56.707 -35.462
30.470 54.823 -48.142
32.220 51.407 -61.435
34.060 43.398 -73.840
36.010 41.516 83.599
38.080 52.426 70.968
40.260 57.305 55.723
42.560 60.416 40.203
45.000 62.630 24.703
47.580 64.279 9.431
50.310 65.545 -5.567
53.190 66.537 -20.258
56.230 67.329 -34.703
59.460 67.976 -49.065
62.860 68.508 -63.290
66.460 68.954 -77.541
70.270 69.332 -91.890
74.300 69.656 -106.403
78.550 69.935 -121.107
83.050 70.178 -136.126
87.810 70.392 -151.511
92.840 70.580 -167.307
98.160 70.748 176.412
103.780 70.898 159.606
109.730 71.032 142.177
116.020 71.154 124.090
122.660 71.265 105.311
129.690 71.367 85.721
137.120 71.461 65.288
144.970 71.548 43.953
153.280 71.630 21.602
162.060 71.708 -1.795
171.340 71.781 -26.322
181.160 71.852 -52.091
191.540 71.919 -79.158
202.510 71.984 -107.606
214.110 72.046 -137.545
226.380 72.105 -169.080
239.350 72.161 157.706
253.060 72.213 122.709
267.560 72.261 85.800
282.890 72.303 46.877
299.090 72.339 5.841
316.230 72.370 -37.485
334.340 72.394 -83.175
353.500 72.412 -131.433
373.750 72.426 177.634
395.160 72.434 123.832
417.800 72.438 66.961
441.730 72.433 6.832
467.040 72.414 -56.824
493.800 72.368 -124.219
522.090 72.280 164.441
552.000 72.128 88.983
583.620 71.896 9.307
617.050 71.577 -74.667
652.400 71.177 -163.047
689.780 70.709 104.002
729.290 70.184 6.282
771.080 69.608 -96.544
815.250 68.980 155.361
861.950 68.305 41.821
911.330 67.616 -77.269
963.540 66.994 157.855
1018.740 66.535 26.477
1077.110 66.290 -112.719
1138.810 66.186 98.919
1204.050 66.066 -59.194
1273.030 65.856 132.793
1345.960 65.544 -45.132
1423.070 65.141 126.751
1504.590 64.705 -72.227
1590.790 64.269 76.924
1681.920 63.743 -147.174
1778.280 62.973 -25.273
1880.150 61.858 82.578
1987.870 60.371 175.879
2101.750 58.391 -105.992
2222.150 55.758 -43.565
2349.460 52.235 4.340
2484.060 47.691 39.095
2626.360 41.875 63.901
2776.820 34.808 94.781
2935.900 34.089 133.483
3104.100 36.852 123.110
3281.930 39.721 62.634
3469.940 41.523 -31.414
3668.730 41.735 -161.770
3878.910 39.824 34.713
4101.130 36.068 -165.515
4336.070 31.283 -74.209
4584.480 33.358 -30.192
4847.120 34.150 28.290
5124.810 28.983 68.720
5418.400 23.336 123.119
5728.810 27.099 151.128
6057.010 30.724 95.687
6404.000 33.790 -18.078
6770.880 34.903 176.042
7158.770 31.911 -52.701
7568.890 22.591 49.351
8002.500 18.419 154.987
8460.950 23.022 172.857
8945.670 21.019 89.199
9458.160 18.444 -42.971
10000.000 13.995 128.287
