# Freq(Hz) SPL(dB) Phase (degrees)
10.000 50.555 103.421
10.570 51.353 99.189
11.180 52.141 94.676
11.820 52.903 89.961
12.500 53.646 84.970
13.210 54.354 79.778
13.970 55.042 74.241
14.770 55.694 68.432
15.620 56.313 62.276
16.510 56.883 55.844
17.460 57.410 48.987
18.460 57.877 41.770
19.510 58.274 34.181
20.630 58.591 26.064
21.810 58.806 17.470
23.060 58.891 8.304
24.380 58.809 -1.460
25.780 58.498 -11.923
27.260 57.867 -23.108
28.820 56.762 -35.014
30.470 54.877 -47.668
32.220 51.462 -60.934
34.060 43.452 -73.310
36.010 41.570 84.159
38.080 52.480 71.560
40.260 57.359 56.349
42.560 60.470 40.865
45.000 62.684 25.403
47.580 64.332 10.171
50.310 65.598 -4.785
53.190 66.589 -19.431
56.230 67.381 -33.828
59.460 68.027 -48.140
62.860 68.559 -62.311
66.460 69.004 -76.506
70.270 69.382 -90.796
74.300 69.705 -105.246
78.550 69.983 -119.883
83.050 70.226 -134.832
87.810 70.439 -150.142
92.840 70.626 -165.859
98.160 70.792 177.943
103.780 70.941 161.224
109.730 71.074 143.888
116.020 71.194 125.900
122.660 71.303 107.224
129.690 71.403 87.744
137.120 71.495 67.428
144.970 71.580 46.215
153.280 71.659 23.994
162.060 71.733 0.734
171.340 71.803 -23.649
181.160 71.869 -49.265
191.540 71.931 -76.171
202.510 71.991 -104.450
214.110 72.046 -134.209
226.380 72.098 -165.555
239.350 72.145 161.433
253.060 72.187 126.649
267.560 72.222 89.968
282.890 72.250 51.289
299.090 72.270 10.514
316.230 72.281 -32.528
334.340 72.283 -77.910
353.500 72.276 -125.829
373.750 72.260 -176.391
395.160 72.234 130.218
417.800 72.199 73.801
441.730 72.149 14.177
467.040 72.078 -48.911
493.800 71.971 -115.657
522.090 71.808 173.769
552.000 71.568 99.255
583.620 71.238 20.788
617.050 70.822 -61.606
652.400 70.351 -147.965
689.780 69.872 121.532
729.290 69.429 26.539
771.080 69.047 -73.535
815.250 68.729 -179.156
861.950 68.465 69.177
911.330 68.249 -48.962
963.540 68.088 -174.021
1018.740 67.984 53.427
1077.110 67.919 -87.349
1138.810 67.834 123.093
1204.050 67.686 -35.697
1273.030 67.437 156.034
1345.960 67.082 -22.150
1423.070 66.588 149.339
1504.590 65.966 -50.013
1590.790 65.167 99.058
1681.920 64.146 -123.926
1778.280 62.808 0.746
1880.150 61.149 113.349
1987.870 59.272 -146.227
2101.750 57.273 -58.832
2222.150 55.250 13.622
2349.460 52.867 69.680
2484.060 49.899 110.681
2626.360 46.378 137.698
2776.820 41.841 155.323
2935.900 39.344 -178.150
3104.100 42.564 167.128
3281.930 45.056 104.898
3469.940 45.402 11.590
3668.730 44.058 -105.183
3878.910 42.627 121.573
4101.130 42.969 -45.045
4336.070 42.246 102.410
4584.480 39.291 -150.598
4847.120 33.028 -80.928
5124.810 20.178 -46.713
5418.400 14.901 169.291
5728.810 19.574 159.806
6057.010 19.214 54.570
6404.000 17.167 -154.971
6770.880 27.197 -28.035
7158.770 24.627 109.197
7568.890 16.354 -138.827
8002.500 15.393 40.890
8460.950 14.180 -9.920
8945.670 21.554 -6.767
9458.160 22.154 -166.389
10000.000 15.618 -21.918
