# Freq(Hz) SPL(dB) Phase (degrees)
10.000 51.142 105.003
10.570 51.939 100.860
11.180 52.728 96.445
11.820 53.489 91.831
12.500 54.231 86.947
13.210 54.939 81.868
13.970 55.627 76.451
14.770 56.278 70.769
15.620 56.896 64.748
16.510 57.466 58.457
17.460 57.992 51.750
18.460 58.458 44.692
19.510 58.854 37.270
20.630 59.170 29.330
21.810 59.383 20.923
23.060 59.467 11.956
24.380 59.383 2.402
25.780 59.071 -7.838
27.260 58.438 -18.787
28.820 57.330 -30.445
30.470 55.443 -42.836
32.220 52.025 -55.823
34.060 44.012 -67.905
36.010 42.127 89.876
38.080 53.033 77.609
40.260 57.907 62.747
42.560 61.014 47.634
45.000 63.222 32.564
47.580 64.865 17.748
50.310 66.124 3.234
53.190 67.108 -10.945
56.230 67.891 -24.848
59.460 68.529 -38.633
62.860 69.050 -52.248
66.460 69.484 -65.851
70.270 69.849 -79.512
74.300 70.159 -93.294
78.550 70.421 -107.222
83.050 70.647 -121.417
87.810 70.841 -135.924
92.840 71.007 -150.786
98.160 71.150 -166.072
103.780 71.273 178.181
109.730 71.379 161.883
116.020 71.468 145.003
122.660 71.543 127.511
129.690 71.606 109.299
137.120 71.658 90.341
144.970 71.699 70.585
153.280 71.730 49.931
162.060 71.754 28.354
171.340 71.769 5.782
181.160 71.777 -17.879
191.540 71.779 -42.676
202.510 71.775 -68.677
214.110 71.767 -95.973
226.380 71.754 -124.653
239.350 71.739 -154.782
253.060 71.723 173.552
267.560 71.709 140.235
282.890 71.699 105.177
299.090 71.698 68.280
316.230 71.709 29.368
334.340 71.738 -11.657
353.500 71.786 -55.022
373.750 71.856 -100.882
395.160 71.945 -149.470
417.800 72.045 158.980
441.730 72.141 104.275
467.040 72.216 46.197
493.800 72.251 -15.374
522.090 72.232 -80.529
552.000 72.154 -149.365
583.620 72.016 137.995
617.050 71.821 61.365
652.400 71.560 -19.481
689.780 71.218 -104.697
729.290 70.782 165.716
771.080 70.259 71.762
815.250 69.696 -26.414
861.950 69.187 -128.916
911.330 68.871 123.698
963.540 68.866 10.041
1018.740 69.142 -111.919
1077.110 69.462 116.215
1138.810 69.516 -25.581
1204.050 69.121 -176.342
1273.030 68.301 25.207
1345.960 67.150 -140.502
1423.070 65.780 46.792
1504.590 64.388 -132.832
1590.790 63.311 39.340
1681.920 62.671 -160.352
1778.280 61.980 -14.920
1880.150 60.784 117.303
1987.870 59.242 -121.469
2101.750 57.791 -12.531
2222.150 56.334 79.291
2349.460 53.902 152.833
2484.060 49.856 -145.172
2626.360 45.275 -86.977
2776.820 40.613 -39.404
2935.900 36.445 25.115
3104.100 38.235 49.289
3281.930 42.699 37.087
3469.940 45.577 -12.660
3668.730 45.987 -96.103
3878.910 45.416 163.255
4101.130 44.516 30.675
4336.070 42.435 -117.804
4584.480 42.258 49.658
4847.120 35.881 -178.161
5124.810 29.181 -42.896
5418.400 22.989 112.287
5728.810 30.214 -164.436
6057.010 34.319 -145.258
6404.000 34.637 151.841
6770.880 32.017 85.060
7158.770 28.168 -61.496
7568.890 19.006 148.925
8002.500 22.052 7.045
8460.950 25.004 105.765
8945.670 27.173 123.430
9458.160 25.358 52.983
10000.000 19.692 -11.572
