# Freq(Hz) SPL(dB) Phase (degrees)
10.000 51.716 -74.782
10.570 52.604 -78.913
11.180 53.495 -83.316
11.820 54.372 -87.919
12.500 55.246 -92.789
13.210 56.102 -97.856
13.970 56.960 -103.259
14.770 57.806 -108.928
15.620 58.647 -114.935
16.510 59.471 -121.212
17.460 60.292 -127.905
18.460 61.100 -134.951
19.510 61.891 -142.360
20.630 62.676 -150.290
21.810 63.443 -158.688
23.060 64.192 -167.651
24.380 64.916 -177.208
25.780 65.609 172.537
27.260 66.259 161.554
28.820 66.847 149.825
30.470 67.357 137.278
32.220 67.763 123.881
34.060 68.038 109.815
36.010 68.160 95.101
38.080 68.111 79.905
40.260 67.887 64.575
42.560 67.498 49.301
45.000 66.962 34.174
47.580 66.306 19.349
50.310 65.556 4.853
53.190 64.739 -9.290
56.230 63.874 -23.143
59.460 62.970 -36.868
62.860 62.046 -50.412
66.460 61.104 -63.938
70.270 60.150 -77.512
74.300 59.187 -91.199
78.550 58.222 -105.026
83.050 57.251 -119.110
87.810 56.276 -133.499
92.840 55.298 -148.234
98.160 54.318 -163.385
103.780 53.336 -178.987
109.730 52.350 164.870
116.020 51.362 148.156
122.660 50.373 130.841
129.690 49.379 112.818
137.120 48.383 94.062
144.970 47.384 74.522
153.280 46.380 54.100
162.060 45.373 32.772
171.340 44.362 10.470
181.160 43.346 -12.900
191.540 42.325 -37.379
202.510 41.300 -63.031
214.110 40.269 -89.939
226.380 39.232 -118.184
239.350 38.191 -147.817
253.060 37.146 -178.910
267.560 36.099 148.447
282.890 35.055 114.192
299.090 34.019 78.261
316.230 32.999 40.516
334.340 32.009 0.893
353.500 31.062 -40.811
373.750 30.175 -84.755
395.160 29.361 -131.217
417.800 28.628 179.470
441.730 27.973 126.961
467.040 27.376 70.841
493.800 26.804 10.790
522.090 26.214 -53.434
552.000 25.558 -121.959
583.620 24.797 165.227
617.050 23.914 88.197
652.400 22.912 6.992
689.780 21.811 -78.432
729.290 20.631 -168.200
771.080 19.384 97.392
815.250 18.075 -1.799
861.950 16.709 -105.938
911.330 15.315 144.877
963.540 13.955 30.453
1018.740 12.704 -89.732
1077.110 11.620 143.503
1138.810 10.719 9.185
1204.050 9.962 -133.804
1273.030 9.256 73.664
1345.960 8.482 -88.899
1423.070 7.532 98.445
1504.590 6.365 -83.882
1590.790 5.056 84.229
1681.920 3.723 -117.695
1778.280 2.416 29.190
1880.150 1.090 163.841
1987.870 -0.334 -74.079
2101.750 -1.742 35.361
2222.150 -3.047 130.303
2349.460 -4.417 -150.337
2484.060 -6.066 -87.093
2626.360 -7.624 -38.305
2776.820 -8.893 -7.219
2935.900 -9.993 3.633
3104.100 -11.222 -7.598
3281.930 -12.771 -40.057
3469.940 -14.486 -93.396
3668.730 -16.076 -168.538
3878.910 -17.314 90.397
4101.130 -18.527 -40.674
4336.070 -20.549 158.979
4584.480 -22.679 -26.621
4847.120 -24.595 114.155
5124.810 -27.281 -137.517
5418.400 -29.849 -60.815
5728.810 -32.240 -23.194
6057.010 -35.358 -20.772
6404.000 -37.861 -59.910
6770.880 -41.263 -146.409
7158.770 -45.177 82.054
7568.890 -50.644 -98.636
8002.500 -59.855 49.489
8460.950 -74.343 161.526
8945.670 -62.463 -71.736
9458.160 -59.394 -107.956
10000.000 -58.176 153.350
