# Freq(Hz) SPL(dB) Phase (degrees)
10.000 51.058 -76.541
10.570 51.946 -80.773
11.180 52.837 -85.284
11.820 53.715 -89.999
12.500 54.589 -94.990
13.210 55.445 -100.181
13.970 56.304 -105.718
14.770 57.150 -111.528
15.620 57.992 -117.685
16.510 58.816 -124.119
17.460 59.639 -130.980
18.460 60.447 -138.202
19.510 61.239 -145.796
20.630 62.025 -153.924
21.810 62.792 -162.530
23.060 63.543 -171.714
24.380 64.268 178.496
25.780 64.963 167.993
27.260 65.615 156.748
28.820 66.205 144.742
30.470 66.716 131.903
32.220 67.125 118.196
34.060 67.402 103.803
36.010 67.527 88.743
38.080 67.481 73.178
40.260 67.261 57.459
42.560 66.876 41.775
45.000 66.344 26.212
47.580 65.694 10.925
50.310 64.950 -4.061
53.190 64.139 -18.722
56.230 63.281 -33.124
59.460 62.384 -47.432
62.860 61.469 -61.593
66.460 60.536 -75.774
70.270 59.592 -90.044
74.300 58.642 -104.471
78.550 57.689 -119.081
83.050 56.732 -133.999
87.810 55.773 -149.274
92.840 54.813 -164.952
98.160 53.852 178.892
103.780 52.892 162.221
109.730 51.930 144.937
116.020 50.967 127.005
122.660 50.006 108.392
129.690 49.043 88.980
137.120 48.081 68.738
144.970 47.118 47.607
153.280 46.154 25.476
162.060 45.190 2.316
171.340 44.226 -21.957
181.160 43.259 -47.451
191.540 42.290 -74.221
202.510 41.320 -102.347
214.110 40.346 -131.935
226.380 39.366 -163.089
239.350 38.382 164.114
253.060 37.390 129.575
267.560 36.390 93.169
282.890 35.379 54.803
299.090 34.357 14.382
316.230 33.323 -28.261
334.340 32.276 -73.193
353.500 31.214 -120.608
373.750 30.140 -170.609
395.160 29.051 136.623
417.800 27.945 80.892
441.730 26.816 22.024
467.040 25.652 -40.226
493.800 24.436 -106.025
522.090 23.143 -175.498
552.000 21.751 111.310
583.620 20.246 34.473
617.050 18.640 -45.884
652.400 16.973 -129.683
689.780 15.312 143.027
729.290 13.741 51.996
771.080 12.345 -43.392
815.250 11.188 -143.915
861.950 10.296 109.305
911.330 9.632 -4.927
963.540 9.094 -127.645
1018.740 8.538 100.447
1077.110 7.780 -40.939
1138.810 6.646 168.776
1204.050 5.084 10.595
1273.030 3.175 -154.255
1345.960 1.126 34.845
1423.070 -0.754 -142.139
1504.590 -2.094 33.102
1590.790 -2.703 -162.632
1681.920 -2.678 -13.254
1778.280 -2.503 118.692
1880.150 -2.652 -126.413
1987.870 -3.241 -27.259
2101.750 -4.297 56.686
2222.150 -5.781 125.460
2349.460 -7.745 179.406
2484.060 -9.969 -139.810
2626.360 -11.748 -113.847
2776.820 -13.067 -108.670
2935.900 -14.439 -126.614
3104.100 -16.114 -168.627
3281.930 -18.765 126.256
3469.940 -22.382 44.687
3668.730 -25.129 -48.495
3878.910 -25.087 -172.265
4101.130 -25.189 20.821
4336.070 -26.442 -179.498
4584.480 -28.529 -50.008
4847.120 -30.527 48.113
5124.810 -32.965 106.009
5418.400 -36.308 125.048
5728.810 -42.346 113.858
6057.010 -47.216 92.658
6404.000 -45.912 -4.538
6770.880 -50.053 -158.739
7158.770 -49.082 38.446
7568.890 -59.289 137.466
8002.500 -69.337 -131.058
8460.950 -73.045 -81.553
8945.670 -72.866 -103.734
9458.160 -68.945 -161.267
10000.000 -67.722 -7.831
