# Freq(Hz) SPL(dB) Phase (degrees)
10.000 52.778 -72.219
10.570 53.665 -76.204
11.180 54.557 -80.451
11.820 55.434 -84.889
12.500 56.308 -89.586
13.210 57.164 -94.469
13.970 58.022 -99.678
14.770 58.868 -105.142
15.620 59.709 -110.930
16.510 60.533 -116.979
17.460 61.355 -123.427
18.460 62.163 -130.216
19.510 62.954 -137.355
20.630 63.739 -144.996
21.810 64.506 -153.091
23.060 65.256 -161.732
24.380 65.980 -170.948
25.780 66.675 179.158
27.260 67.325 168.557
28.820 67.914 157.231
30.470 68.423 145.111
32.220 68.831 132.168
34.060 69.107 118.579
36.010 69.229 104.372
38.080 69.181 89.714
40.260 68.959 74.952
42.560 68.572 60.279
45.000 68.037 45.790
47.580 67.384 31.642
50.310 66.637 17.863
53.190 65.823 4.479
56.230 64.962 -8.571
59.460 64.062 -21.439
62.860 63.143 -34.079
66.460 62.207 -46.643
70.270 61.260 -59.197
74.300 60.306 -71.800
78.550 59.351 -84.478
83.050 58.392 -97.342
87.810 57.433 -110.434
92.840 56.473 -123.793
98.160 55.515 -137.483
103.780 54.559 -151.538
109.730 53.605 -166.037
116.020 52.654 178.990
122.660 51.710 163.513
129.690 50.771 147.435
137.120 49.839 130.727
144.970 48.916 113.337
153.280 48.003 95.168
162.060 47.103 76.188
171.340 46.217 56.317
181.160 45.345 35.453
191.540 44.491 13.533
202.510 43.654 -9.530
214.110 42.835 -33.849
226.380 42.032 -59.536
239.350 41.245 -86.683
253.060 40.471 -115.405
267.560 39.706 -145.831
282.890 38.944 -178.067
299.090 38.182 147.788
316.230 37.412 111.580
334.340 36.629 73.243
353.500 35.824 32.614
373.750 34.993 -10.385
395.160 34.126 -55.894
417.800 33.214 -104.048
441.730 32.243 -154.948
467.040 31.193 151.280
493.800 30.043 94.628
522.090 28.773 35.184
552.000 27.384 -26.849
583.620 25.914 -91.203
617.050 24.453 -157.780
652.400 23.118 133.041
689.780 21.989 60.339
729.290 21.051 -16.945
771.080 20.210 -99.587
815.250 19.371 172.290
861.950 18.487 78.809
911.330 17.581 -19.897
963.540 16.718 -124.009
1018.740 15.967 125.773
1077.110 15.312 8.290
1138.810 14.615 -117.206
1204.050 13.732 109.472
1273.030 12.679 -31.006
1345.960 11.577 -178.836
1423.070 10.445 25.018
1504.590 9.211 -139.756
1590.790 7.896 47.039
1681.920 6.625 -134.920
1778.280 5.504 33.451
1880.150 4.614 -169.272
1987.870 3.913 -25.235
2101.750 3.108 104.352
2222.150 2.008 -139.602
2349.460 0.687 -36.398
2484.060 -0.546 53.254
2626.360 -1.728 126.963
2776.820 -3.063 -175.384
2935.900 -4.292 -134.555
3104.100 -5.624 -112.627
3281.930 -6.905 -109.073
3469.940 -8.154 -127.420
3668.730 -9.635 -167.304
3878.910 -11.225 130.385
4101.130 -12.774 45.250
4336.070 -14.196 -67.240
4584.480 -16.052 152.211
4847.120 -18.262 -14.740
5124.810 -20.138 151.261
5418.400 -21.803 -79.558
5728.810 -24.410 14.892
6057.010 -27.116 79.703
6404.000 -29.475 102.289
6770.880 -32.998 86.616
7158.770 -36.345 31.088
7568.890 -40.916 -75.840
8002.500 -47.160 137.706
8460.950 -57.368 -72.962
8945.670 -62.000 -108.980
9458.160 -52.683 -70.503
10000.000 -50.843 -77.707
