# Freq(Hz) SPL(dB) Phase (degrees)
10.000 52.458 -72.958
10.570 53.345 -76.985
11.180 54.237 -81.277
11.820 55.114 -85.763
12.500 55.988 -90.509
13.210 56.844 -95.446
13.970 57.702 -100.710
14.770 58.547 -106.233
15.620 59.388 -112.085
16.510 60.212 -118.199
17.460 61.034 -124.718
18.460 61.841 -131.581
19.510 62.632 -138.798
20.630 63.417 -146.522
21.810 64.184 -154.704
23.060 64.933 -163.438
24.380 65.657 -172.752
25.780 66.351 177.250
27.260 67.000 166.539
28.820 67.589 155.097
30.470 68.098 142.854
32.220 68.505 129.781
34.060 68.780 116.055
36.010 68.901 101.702
38.080 68.852 86.890
40.260 68.628 71.965
42.560 68.240 57.120
45.000 67.704 42.448
47.580 67.049 28.106
50.310 66.300 14.122
53.190 65.484 0.522
56.230 64.620 -12.758
59.460 63.717 -25.869
62.860 62.794 -38.766
66.460 61.854 -51.603
70.270 60.903 -64.445
74.300 59.943 -77.353
78.550 58.982 -90.354
83.050 58.016 -103.559
87.810 57.047 -117.012
92.840 56.078 -130.752
98.160 55.108 -144.844
103.780 54.139 -159.320
109.730 53.169 -174.263
116.020 52.201 170.299
122.660 51.236 154.338
129.690 50.273 137.756
137.120 49.314 120.527
144.970 48.361 102.601
153.280 47.413 83.885
162.060 46.474 64.352
171.340 45.544 43.928
181.160 44.626 22.515
191.540 43.722 0.058
202.510 42.833 -23.524
214.110 41.961 -48.336
226.380 41.107 -74.487
239.350 40.273 -102.070
253.060 39.457 -131.198
267.560 38.659 -162.010
282.890 37.877 165.378
299.090 37.108 130.851
316.230 36.348 94.231
334.340 35.594 55.430
353.500 34.838 14.253
373.750 34.076 -29.411
395.160 33.300 -75.739
417.800 32.499 -124.912
441.730 31.657 -177.080
467.040 30.753 127.563
493.800 29.757 68.926
522.090 28.637 6.999
552.000 27.367 -58.107
583.620 25.941 -126.139
617.050 24.391 163.194
652.400 22.797 90.045
689.780 21.269 14.224
729.290 19.910 -64.898
771.080 18.760 -148.362
815.250 17.789 122.935
861.950 16.926 28.301
911.330 16.091 -72.623
963.540 15.221 -179.933
1018.740 14.293 66.499
1077.110 13.349 -53.299
1138.810 12.480 -179.698
1204.050 11.734 46.214
1273.030 11.056 -96.743
1345.960 10.305 110.602
1423.070 9.291 -51.789
1504.590 7.919 137.151
1590.790 6.327 -41.526
1681.920 4.797 131.885
1778.280 3.494 -64.349
1880.150 2.437 87.878
1987.870 1.465 -133.144
2101.750 0.416 -7.360
2222.150 -0.633 105.113
2349.460 -1.602 -157.567
2484.060 -2.645 -76.325
2626.360 -4.117 -11.469
2776.820 -5.726 39.137
2935.900 -7.154 72.638
3104.100 -8.600 87.880
3281.930 -9.756 83.111
3469.940 -11.096 54.734
3668.730 -12.809 5.406
3878.910 -14.449 -65.997
4101.130 -16.023 -161.960
4336.070 -17.512 74.201
4584.480 -19.573 -78.419
4847.120 -21.714 103.113
5124.810 -23.762 -106.093
5418.400 -25.617 9.761
5728.810 -28.494 92.422
6057.010 -30.805 139.758
6404.000 -33.915 144.173
6770.880 -37.997 114.613
7158.770 -41.387 41.198
7568.890 -46.890 -83.377
8002.500 -54.441 116.049
8460.950 -67.768 -14.432
8945.670 -57.478 133.135
9458.160 -54.036 168.692
10000.000 -53.498 141.889
