# Freq(Hz) SPL(dB) Phase (degrees)
10.000 53.493 -70.666
10.570 54.380 -74.563
11.180 55.272 -78.715
11.820 56.150 -83.054
12.500 57.024 -87.644
13.210 57.881 -92.418
13.970 58.739 -97.508
14.770 59.586 -102.848
15.620 60.427 -108.504
16.510 61.252 -114.414
17.460 62.074 -120.715
18.460 62.883 -127.349
19.510 63.675 -134.325
20.630 64.461 -141.792
21.810 65.229 -149.703
23.060 65.980 -158.149
24.380 66.706 -167.161
25.780 67.402 -176.837
27.260 68.053 172.793
28.820 68.644 161.709
30.470 69.156 149.846
32.220 69.566 137.175
34.060 69.845 123.873
36.010 69.970 109.969
38.080 69.926 95.633
40.260 69.707 81.210
42.560 69.324 66.896
45.000 68.795 52.786
47.580 68.147 39.039
50.310 67.407 25.685
53.190 66.600 12.749
56.230 65.747 0.171
59.460 64.857 -12.196
62.860 63.949 -24.310
66.460 63.025 -36.318
70.270 62.092 -48.284
74.300 61.154 -60.269
78.550 60.216 -72.298
83.050 59.278 -84.479
87.810 58.341 -96.853
92.840 57.408 -109.462
98.160 56.479 -122.367
103.780 55.556 -135.604
109.730 54.640 -149.253
116.020 53.731 -163.347
122.660 52.833 -177.919
129.690 51.945 166.931
137.120 51.069 151.169
144.970 50.206 134.738
153.280 49.357 117.537
162.060 48.523 99.526
171.340 47.703 80.621
181.160 46.898 60.719
191.540 46.105 39.755
202.510 45.324 17.647
214.110 44.551 -5.705
226.380 43.782 -30.399
239.350 43.011 -56.501
253.060 42.234 -84.091
267.560 41.444 -113.256
282.890 40.636 -144.048
299.090 39.805 -176.503
316.230 38.949 149.299
334.340 38.067 113.373
353.500 37.166 75.637
373.750 36.258 36.085
395.160 35.360 -5.382
417.800 34.497 -48.923
441.730 33.692 -94.773
467.040 32.960 -143.321
493.800 32.293 165.017
522.090 31.660 109.842
552.000 31.006 50.893
583.620 30.274 -11.855
617.050 29.429 -78.233
652.400 28.477 -148.008
689.780 27.465 138.961
729.290 26.466 62.553
771.080 25.545 -17.799
815.250 24.716 -102.802
861.950 23.931 166.869
911.330 23.121 70.964
963.540 22.266 -30.438
1018.740 21.421 -137.526
1077.110 20.607 108.784
1138.810 19.689 -12.282
1204.050 18.495 -140.200
1273.030 17.066 86.357
1345.960 15.660 -52.064
1423.070 14.577 163.339
1504.590 13.919 10.062
1590.790 13.531 -154.079
1681.920 13.185 29.988
1778.280 12.674 -157.884
1880.150 11.905 3.068
1987.870 10.976 152.777
2101.750 9.858 -69.225
2222.150 8.589 57.082
2349.460 7.231 171.278
2484.060 6.008 -87.351
2626.360 4.871 -1.617
2776.820 3.560 68.306
2935.900 2.186 122.985
3104.100 0.987 160.845
3281.930 -0.131 179.205
3469.940 -1.381 177.064
3668.730 -2.886 154.644
3878.910 -4.572 112.572
4101.130 -5.798 49.363
4336.070 -6.916 -41.167
4584.480 -8.437 -157.716
4847.120 -10.059 61.202
5124.810 -11.192 -107.484
5418.400 -12.284 51.019
5728.810 -13.405 176.634
6057.010 -14.827 -92.178
6404.000 -16.244 -34.857
6770.880 -17.406 -16.793
7158.770 -18.663 -38.571
7568.890 -20.181 -103.708
8002.500 -21.712 146.906
8460.950 -23.177 -9.579
8945.670 -24.686 143.885
9458.160 -26.102 -115.930
10000.000 -27.758 -72.236
