# Freq(Hz) SPL(dB) Phase (degrees)
10.000 52.128 -73.749
10.570 53.015 -77.821
11.180 53.907 -82.162
11.820 54.784 -86.698
12.500 55.658 -91.498
13.210 56.514 -96.491
13.970 57.372 -101.815
14.770 58.217 -107.402
15.620 59.058 -113.321
16.510 59.882 -119.506
17.460 60.704 -126.100
18.460 61.511 -133.042
19.510 62.302 -140.343
20.630 63.087 -148.156
21.810 63.853 -156.432
23.060 64.602 -165.265
24.380 65.326 -174.685
25.780 66.019 175.206
27.260 66.669 164.377
28.820 67.257 152.810
30.470 67.766 140.435
32.220 68.172 127.222
34.060 68.446 113.349
36.010 68.568 98.839
38.080 68.518 83.860
40.260 68.293 68.759
42.560 67.904 53.728
45.000 67.367 38.858
47.580 66.711 24.307
50.310 65.961 10.100
53.190 65.143 -3.736
56.230 64.277 -17.265
59.460 63.372 -30.642
62.860 62.447 -43.821
66.460 61.505 -56.956
70.270 60.550 -70.116
74.300 59.587 -83.363
78.550 58.620 -96.722
83.050 57.649 -110.309
87.810 56.674 -124.166
92.840 55.697 -138.337
98.160 54.717 -152.886
103.780 53.737 -167.847
109.730 52.753 176.694
116.020 51.769 160.710
122.660 50.785 144.173
129.690 49.798 126.981
137.120 48.811 109.111
144.970 47.824 90.515
153.280 46.837 71.100
162.060 45.851 50.844
171.340 44.867 29.678
181.160 43.885 7.514
191.540 42.907 -15.692
202.510 41.935 -40.008
214.110 40.970 -65.521
226.380 40.012 -92.320
239.350 39.067 -120.474
253.060 38.135 -150.076
267.560 37.220 178.758
282.890 36.326 145.927
299.090 35.457 111.322
316.230 34.617 74.760
334.340 33.809 36.128
353.500 33.037 -4.807
373.750 32.299 -48.208
395.160 31.592 -94.317
417.800 30.906 -143.377
441.730 30.225 164.398
467.040 29.526 108.757
493.800 28.778 49.551
522.090 27.949 -13.298
552.000 27.006 -79.774
583.620 25.936 -149.744
617.050 24.747 136.960
652.400 23.482 60.439
689.780 22.203 -19.364
729.290 20.986 -102.717
771.080 19.890 169.770
815.250 18.948 77.439
861.950 18.158 -20.502
911.330 17.490 -124.778
963.540 16.894 123.956
1018.740 16.290 5.193
1077.110 15.589 -121.341
1138.810 14.717 104.531
1204.050 13.670 -36.887
1273.030 12.529 174.516
1345.960 11.393 18.170
1423.070 10.278 -146.860
1504.590 9.155 38.920
1590.790 8.055 -144.869
1681.920 7.039 20.746
1778.280 6.033 174.532
1880.150 4.922 -43.957
1987.870 3.640 85.193
2101.750 2.236 -157.464
2222.150 0.982 -52.838
2349.460 -0.165 36.262
2484.060 -1.396 110.094
2626.360 -2.619 168.242
2776.820 -3.646 -151.066
2935.900 -4.657 -130.313
3104.100 -5.930 -129.535
3281.930 -7.280 -147.717
3469.940 -8.451 172.414
3668.730 -9.622 108.549
3878.910 -10.970 19.844
4101.130 -12.370 -94.350
4336.070 -13.902 123.698
4584.480 -15.670 -46.504
4847.120 -17.469 113.333
5124.810 -19.472 -119.125
5418.400 -21.625 -25.012
5728.810 -24.114 32.841
6057.010 -26.807 55.870
6404.000 -29.459 38.153
6770.880 -32.443 -22.301
7158.770 -35.917 -128.265
7568.890 -40.278 77.967
8002.500 -46.597 -127.913
8460.950 -58.293 -26.177
8945.670 -59.336 -144.332
9458.160 -51.334 -161.692
10000.000 -49.371 125.958
