# Freq(Hz) SPL(dB) Phase (degrees)
10.000 50.993 -76.723
10.570 51.881 -80.965
11.180 52.772 -85.487
11.820 53.650 -90.214
12.500 54.525 -95.216
13.210 55.381 -100.421
13.970 56.239 -105.972
14.770 57.086 -111.796
15.620 57.928 -117.969
16.510 58.752 -124.419
17.460 59.575 -131.296
18.460 60.383 -138.537
19.510 61.175 -146.151
20.630 61.961 -154.298
21.810 62.729 -162.926
23.060 63.480 -172.133
24.380 64.205 178.053
25.780 64.901 167.525
27.260 65.553 156.253
28.820 66.143 144.219
30.470 66.655 131.349
32.220 67.064 117.610
34.060 67.342 103.185
36.010 67.468 88.088
38.080 67.422 72.486
40.260 67.203 56.727
42.560 66.819 41.002
45.000 66.288 25.394
47.580 65.638 10.060
50.310 64.895 -4.977
53.190 64.086 -19.690
56.230 63.229 -34.148
59.460 62.335 -48.515
62.860 61.421 -62.739
66.460 60.490 -76.986
70.270 59.549 -91.327
74.300 58.601 -105.828
78.550 57.651 -120.517
83.050 56.697 -135.518
87.810 55.742 -150.882
92.840 54.786 -166.655
98.160 53.830 177.091
103.780 52.874 160.313
109.730 51.917 142.917
116.020 50.961 124.866
122.660 50.007 106.125
129.690 49.052 86.578
137.120 48.098 66.193
144.970 47.145 44.909
153.280 46.192 22.616
162.060 45.240 -0.718
171.340 44.289 -25.177
181.160 43.337 -50.870
191.540 42.385 -77.852
202.510 41.433 -106.207
214.110 40.480 -136.040
226.380 39.523 -167.457
239.350 38.564 159.463
253.060 37.600 124.618
267.560 36.631 87.884
282.890 35.654 49.163
299.090 34.669 8.361
316.230 33.675 -34.691
334.340 32.672 -80.058
353.500 31.660 -127.936
373.750 30.639 -178.423
395.160 29.612 128.299
417.800 28.576 72.040
441.730 27.530 12.624
467.040 26.467 -50.202
493.800 25.377 -116.625
522.090 24.242 173.184
552.000 23.047 99.100
583.620 21.781 21.075
617.050 20.451 -60.918
652.400 19.078 -146.961
689.780 17.699 122.776
729.290 16.351 28.040
771.080 15.069 -71.623
815.250 13.886 -176.613
861.950 12.831 72.460
911.330 11.927 -45.159
963.540 11.164 -170.375
1018.740 10.486 55.881
1077.110 9.779 -87.193
1138.810 8.895 120.225
1204.050 7.763 -41.570
1273.030 6.390 147.689
1345.960 4.832 -32.263
1423.070 3.080 138.027
1504.590 1.113 -61.707
1590.790 -1.085 88.431
1681.920 -3.494 -131.225
1778.280 -5.941 -0.129
1880.150 -7.977 120.756
1987.870 -9.344 -132.370
2101.750 -10.237 -43.518
2222.150 -11.018 24.991
2349.460 -12.127 71.458
2484.060 -14.052 95.528
2626.360 -17.228 97.776
2776.820 -22.122 77.580
2935.900 -30.126 28.296
3104.100 -40.391 -130.531
3281.930 -33.707 91.082
3469.940 -35.473 -27.934
3668.730 -50.607 -153.195
3878.910 -35.981 -163.433
4101.130 -30.878 -11.856
4336.070 -30.644 119.461
4584.480 -33.200 -136.984
4847.120 -37.923 -45.075
5124.810 -39.696 22.013
5418.400 -39.618 25.315
5728.810 -42.576 -24.845
6057.010 -51.674 -125.664
6404.000 -59.246 177.773
6770.880 -61.676 -37.217
7158.770 -61.681 -32.637
7568.890 -59.166 80.302
8002.500 -65.366 143.054
8460.950 -74.078 161.400
8945.670 -68.340 122.814
9458.160 -66.413 -4.043
10000.000 -64.273 122.627
