# Freq(Hz) SPL(dB) Phase (degrees)
10.000 51.380 -75.662
10.570 52.268 -79.844
11.180 53.159 -84.301
11.820 54.036 -88.960
12.500 54.911 -93.890
13.210 55.766 -99.019
13.970 56.625 -104.490
14.770 57.471 -110.230
15.620 58.312 -116.312
16.510 59.136 -122.667
17.460 59.958 -129.444
18.460 60.766 -136.578
19.510 61.557 -144.080
20.630 62.342 -152.108
21.810 63.109 -160.611
23.060 63.859 -169.685
24.380 64.583 -179.359
25.780 65.277 170.263
27.260 65.927 159.148
28.820 66.516 147.280
30.470 67.026 134.587
32.220 67.433 121.035
34.060 67.709 106.806
36.010 67.832 91.918
38.080 67.783 76.537
40.260 67.560 61.012
42.560 67.173 45.533
45.000 66.638 30.187
47.580 65.984 15.130
50.310 65.236 0.388
53.190 64.421 -14.014
56.230 63.558 -28.143
59.460 62.656 -42.160
62.860 61.734 -56.015
66.460 60.795 -69.869
70.270 59.844 -83.793
74.300 58.885 -97.852
78.550 57.923 -112.072
83.050 56.956 -126.576
87.810 55.985 -141.411
92.840 55.012 -156.621
98.160 54.037 -172.278
103.780 53.061 171.581
109.730 52.081 154.863
116.020 51.099 137.534
122.660 50.116 119.564
129.690 49.129 100.840
137.120 48.139 81.333
144.970 47.147 60.990
153.280 46.150 39.705
162.060 45.150 17.452
171.340 44.146 -5.846
181.160 43.135 -30.288
191.540 42.118 -55.923
202.510 41.094 -82.822
214.110 40.062 -111.079
226.380 39.021 -140.786
239.350 37.968 -172.007
253.060 36.904 155.174
267.560 35.826 120.651
282.890 34.734 84.350
299.090 33.629 46.198
316.230 32.509 6.056
334.340 31.377 -36.119
353.500 30.235 -80.488
373.750 29.087 -127.117
395.160 27.939 -176.152
417.800 26.794 132.260
441.730 25.660 77.990
467.040 24.541 20.843
493.800 23.445 -39.320
522.090 22.386 -102.658
552.000 21.385 -169.376
583.620 20.473 120.222
617.050 19.675 45.661
652.400 18.993 -33.670
689.780 18.398 -118.360
729.290 17.842 151.150
771.080 17.268 54.456
815.250 16.624 -48.599
861.950 15.864 -158.187
911.330 14.951 85.579
963.540 13.854 -37.360
1018.740 12.545 -167.038
1077.110 10.990 56.758
1138.810 9.229 -85.314
1204.050 7.431 126.971
1273.030 5.855 -27.141
1345.960 4.606 170.264
1423.070 3.586 -2.707
1504.590 2.596 173.334
1590.790 1.586 -21.463
1681.920 0.639 132.614
1778.280 -0.181 -85.626
1880.150 -0.887 42.519
1987.870 -1.549 154.920
2101.750 -2.548 -108.989
2222.150 -4.093 -28.380
2349.460 -6.228 38.515
2484.060 -8.663 93.965
2626.360 -10.467 137.456
2776.820 -11.196 160.020
2935.900 -11.980 156.548
3104.100 -13.441 130.632
3281.930 -15.312 84.671
3469.940 -17.083 15.587
3668.730 -19.403 -77.135
3878.910 -22.007 168.015
4101.130 -23.599 28.052
4336.070 -25.421 -150.669
4584.480 -29.196 5.234
4847.120 -31.481 140.499
5124.810 -33.154 -133.261
5418.400 -36.190 -85.851
5728.810 -42.454 -55.296
6057.010 -44.123 -59.353
6404.000 -47.166 -130.057
6770.880 -56.208 114.004
7158.770 -52.080 -42.554
7568.890 -66.242 168.571
8002.500 -64.431 -61.072
8460.950 -75.226 52.057
8945.670 -66.863 74.809
9458.160 -62.894 -10.617
10000.000 -65.621 -149.837
