# Freq(Hz) SPL(dB) Phase (degrees)
10.000 51.628 -75.009
10.570 52.516 -79.152
11.180 53.407 -83.570
11.820 54.284 -88.187
12.500 55.158 -93.073
13.210 56.014 -98.155
13.970 56.872 -103.576
14.770 57.718 -109.263
15.620 58.559 -115.290
16.510 59.383 -121.587
17.460 60.204 -128.301
18.460 61.012 -135.370
19.510 61.803 -142.803
20.630 62.588 -150.758
21.810 63.355 -159.183
23.060 64.104 -168.175
24.380 64.828 -177.761
25.780 65.521 171.952
27.260 66.171 160.935
28.820 66.759 149.170
30.470 67.269 136.585
32.220 67.675 123.149
34.060 67.950 109.041
36.010 68.072 94.283
38.080 68.023 79.039
40.260 67.799 63.659
42.560 67.410 48.333
45.000 66.874 33.150
47.580 66.218 18.266
50.310 65.468 3.708
53.190 64.651 -10.501
56.230 63.786 -24.425
59.460 62.882 -38.223
62.860 61.958 -51.846
66.460 61.016 -65.454
70.270 60.062 -79.117
74.300 59.099 -92.897
78.550 58.134 -106.822
83.050 57.162 -121.011
87.810 56.187 -135.510
92.840 55.210 -150.363
98.160 54.229 -165.638
103.780 53.247 178.628
109.730 52.261 162.345
116.020 51.273 145.483
122.660 50.283 128.011
129.690 49.289 109.822
137.120 48.292 90.890
144.970 47.293 71.162
153.280 46.288 50.541
162.060 45.281 29.003
171.340 44.270 6.476
181.160 43.253 -17.134
191.540 42.233 -41.869
202.510 41.208 -67.795
214.110 40.178 -95.001
226.380 39.143 -123.570
239.350 38.103 -153.560
253.060 37.061 174.947
267.560 36.016 141.851
282.890 34.971 107.077
299.090 33.931 70.547
316.230 32.898 32.113
334.340 31.880 -8.290
353.500 30.883 -50.850
373.750 29.916 -95.684
395.160 28.987 -142.996
417.800 28.101 166.985
441.730 27.263 114.029
467.040 26.469 57.824
493.800 25.709 -1.890
522.090 24.969 -65.369
552.000 24.229 -132.847
583.620 23.473 155.492
617.050 22.689 79.463
652.400 21.867 -1.156
689.780 20.998 -86.609
729.290 20.064 -177.130
771.080 19.036 86.981
815.250 17.879 -14.348
861.950 16.560 -121.123
911.330 15.068 126.830
963.540 13.442 9.816
1018.740 11.784 -111.980
1077.110 10.275 121.169
1138.810 9.108 -12.062
1204.050 8.274 -153.903
1273.030 7.603 54.179
1345.960 6.912 -108.179
1423.070 6.094 78.995
1504.590 5.112 -104.039
1590.790 4.033 62.668
1681.920 2.926 -141.969
1778.280 1.657 0.798
1880.150 0.048 131.296
1987.870 -1.937 -109.889
2101.750 -4.056 -0.778
2222.150 -5.703 97.118
2349.460 -6.695 177.746
2484.060 -7.827 -122.191
2626.360 -9.673 -79.577
2776.820 -11.716 -49.779
2935.900 -12.880 -38.382
3104.100 -14.138 -54.011
3281.930 -16.786 -90.440
3469.940 -19.471 -137.322
3668.730 -20.100 150.353
3878.910 -21.346 43.417
4101.130 -23.366 -87.654
4336.070 -25.312 114.055
4584.480 -27.341 -72.390
4847.120 -28.791 66.683
5124.810 -32.189 167.874
5418.400 -34.801 -107.774
5728.810 -37.583 -79.003
6057.010 -40.985 -72.159
6404.000 -44.388 -117.093
6770.880 -47.947 161.393
7158.770 -50.906 56.729
7568.890 -55.284 -135.140
8002.500 -61.739 13.487
8460.950 -62.425 124.014
8945.670 -61.729 -178.159
9458.160 -61.088 148.376
10000.000 -61.586 48.080
