# Freq(Hz) SPL(dB) Phase (degrees)
10.000 53.231 -71.220
10.570 54.118 -75.148
11.180 55.010 -79.334
11.820 55.888 -83.708
12.500 56.762 -88.337
13.210 57.618 -93.150
13.970 58.476 -98.282
14.770 59.323 -103.666
15.620 60.164 -109.370
16.510 60.988 -115.329
17.460 61.810 -121.682
18.460 62.619 -128.371
19.510 63.410 -135.405
20.630 64.196 -142.934
21.810 64.963 -150.911
23.060 65.714 -159.427
24.380 66.439 -168.511
25.780 67.134 -178.264
27.260 67.785 171.283
28.820 68.375 160.113
30.470 68.886 148.158
32.220 69.294 135.391
34.060 69.571 121.987
36.010 69.696 107.975
38.080 69.650 93.525
40.260 69.429 78.982
42.560 69.044 64.540
45.000 68.513 50.296
47.580 67.862 36.407
50.310 67.119 22.902
53.190 66.309 9.808
56.230 65.452 -2.937
59.460 64.557 -15.480
62.860 63.643 -27.780
66.460 62.714 -39.983
70.270 61.775 -52.155
74.300 60.829 -64.356
78.550 59.884 -76.611
83.050 58.936 -89.029
87.810 57.989 -101.651
92.840 57.044 -114.518
98.160 56.101 -127.692
103.780 55.164 -141.206
109.730 54.230 -155.142
116.020 53.303 -169.529
122.660 52.385 175.601
129.690 51.474 160.150
137.120 50.574 144.085
144.970 49.685 127.353
153.280 48.808 109.854
162.060 47.946 91.552
171.340 47.098 72.365
181.160 46.264 52.191
191.540 45.446 30.967
202.510 44.640 8.609
214.110 43.847 -14.986
226.380 43.061 -39.918
239.350 42.281 -66.262
253.060 41.502 -94.106
267.560 40.718 -123.548
282.890 39.925 -154.655
299.090 39.118 172.520
316.230 38.293 137.877
334.340 37.450 101.409
353.500 36.591 63.019
373.750 35.723 22.688
395.160 34.857 -19.676
417.800 34.012 -64.198
441.730 33.207 -111.044
467.040 32.460 -160.520
493.800 31.778 147.029
522.090 31.149 91.208
552.000 30.538 31.674
583.620 29.899 -31.753
617.050 29.192 -99.083
652.400 28.403 -170.230
689.780 27.547 114.878
729.290 26.660 36.223
771.080 25.783 -46.465
815.250 24.956 -133.512
861.950 24.200 134.548
911.330 23.519 37.162
963.540 22.903 -66.203
1018.740 22.337 -176.160
1077.110 21.764 66.543
1138.810 21.053 -58.440
1204.050 20.096 169.316
1273.030 18.944 30.495
1345.960 17.732 -115.133
1423.070 16.486 91.578
1504.590 15.176 -69.534
1590.790 13.915 121.555
1681.920 12.868 -56.264
1778.280 12.065 115.149
1880.150 11.382 -85.892
1987.870 10.612 59.997
2101.750 9.664 -167.314
2222.150 8.426 -47.979
2349.460 6.848 58.630
2484.060 5.091 153.200
2626.360 3.408 -125.262
2776.820 1.907 -58.356
2935.900 0.705 -8.244
3104.100 -0.494 22.936
3281.930 -1.508 36.064
3469.940 -2.372 26.558
3668.730 -3.561 -6.212
3878.910 -5.377 -60.541
4101.130 -7.341 -133.002
4336.070 -8.267 131.584
4584.480 -9.105 3.711
4847.120 -10.564 -152.804
5124.810 -12.230 24.583
5418.400 -13.552 171.310
5728.810 -14.832 -75.430
6057.010 -16.048 2.187
6404.000 -17.413 41.870
6770.880 -18.913 43.760
7158.770 -20.381 3.466
7568.890 -22.109 -79.340
8002.500 -23.842 152.081
8460.950 -25.582 -24.871
8945.670 -27.350 106.837
9458.160 -29.255 -175.837
10000.000 -31.219 -155.635
