# Freq(Hz) SPL(dB) Phase (degrees)
10.000 52.673 -72.457
10.570 53.561 -76.456
11.180 54.452 -80.717
11.820 55.330 -85.171
12.500 56.204 -89.883
13.210 57.060 -94.784
13.970 57.918 -100.010
14.770 58.764 -105.493
15.620 59.605 -111.302
16.510 60.428 -117.372
17.460 61.250 -123.843
18.460 62.058 -130.655
19.510 62.849 -137.820
20.630 63.634 -145.488
21.810 64.401 -153.610
23.060 65.151 -162.281
24.380 65.875 -171.529
25.780 66.569 178.544
27.260 67.219 167.908
28.820 67.807 156.544
30.470 68.317 144.384
32.220 68.724 131.399
34.060 69.000 117.767
36.010 69.122 103.512
38.080 69.074 88.805
40.260 68.851 73.990
42.560 68.463 59.262
45.000 67.928 44.714
47.580 67.274 30.504
50.310 66.526 16.660
53.190 65.711 3.206
56.230 64.849 -9.918
59.460 63.948 -22.863
62.860 63.028 -35.586
66.460 62.091 -48.237
70.270 61.142 -60.883
74.300 60.186 -73.584
78.550 59.229 -86.365
83.050 58.268 -99.338
87.810 57.305 -112.544
92.840 56.342 -126.025
98.160 55.379 -139.842
103.780 54.419 -154.030
109.730 53.459 -168.669
116.020 52.503 176.211
122.660 51.552 160.583
129.690 50.604 144.348
137.120 49.663 127.478
144.970 48.731 109.923
153.280 47.806 91.587
162.060 46.893 72.438
171.340 45.994 52.400
181.160 45.108 31.371
191.540 44.238 9.290
202.510 43.386 -13.927
214.110 42.552 -38.393
226.380 41.735 -64.218
239.350 40.936 -91.497
253.060 40.152 -120.345
267.560 39.380 -150.894
282.890 38.616 176.744
299.090 37.857 142.464
316.230 37.094 106.105
334.340 36.324 67.593
353.500 35.540 26.752
373.750 34.734 -16.505
395.160 33.899 -62.333
417.800 33.024 -110.881
441.730 32.094 -162.269
467.040 31.087 143.355
493.800 29.977 85.957
522.090 28.741 25.599
552.000 27.364 -37.527
583.620 25.870 -103.115
617.050 24.332 -170.935
652.400 22.869 118.873
689.780 21.595 45.585
729.290 20.544 -31.892
771.080 19.650 -114.595
815.250 18.812 157.073
861.950 17.953 63.071
911.330 17.059 -36.466
963.540 16.166 -141.528
1018.740 15.349 107.517
1077.110 14.650 -10.309
1138.810 13.996 -136.043
1204.050 13.242 89.910
1273.030 12.324 -52.149
1345.960 11.263 157.801
1423.070 10.049 -0.518
1504.590 8.676 -166.934
1590.790 7.245 18.649
1681.920 5.902 -164.482
1778.280 4.715 2.618
1880.150 3.760 158.707
1987.870 3.024 -58.162
2101.750 2.312 70.462
2222.150 1.388 -175.593
2349.460 0.111 -75.972
2484.060 -1.343 10.563
2626.360 -2.741 82.987
2776.820 -4.119 139.179
2935.900 -5.324 178.950
3104.100 -6.325 -161.995
3281.930 -7.724 -163.504
3469.940 -9.207 175.644
3668.730 -10.866 133.337
3878.910 -12.378 69.906
4101.130 -13.616 -19.758
4336.070 -15.269 -137.381
4584.480 -17.347 79.030
4847.120 -19.429 -90.016
5124.810 -21.244 69.373
5418.400 -23.153 -165.117
5728.810 -25.765 -73.936
6057.010 -28.372 -16.251
6404.000 -31.111 1.400
6770.880 -34.727 -17.779
7158.770 -38.181 -80.146
7568.890 -43.084 168.649
8002.500 -50.738 16.515
8460.950 -66.113 176.966
8945.670 -58.594 88.536
9458.160 -53.843 133.244
10000.000 -51.405 123.682
