# Freq(Hz) SPL(dB) Phase (degrees)
10.000 53.498 -70.655
10.570 54.386 -74.551
11.180 55.278 -78.703
11.820 56.155 -83.040
12.500 57.030 -87.630
13.210 57.886 -92.403
13.970 58.745 -97.492
14.770 59.591 -102.831
15.620 60.433 -108.487
16.510 61.257 -114.396
17.460 62.080 -120.696
18.460 62.889 -127.328
19.510 63.681 -134.303
20.630 64.467 -141.768
21.810 65.235 -149.678
23.060 65.986 -158.123
24.380 66.711 -167.133
25.780 67.407 -176.807
27.260 68.059 172.824
28.820 68.650 161.742
30.470 69.162 149.880
32.220 69.572 137.211
34.060 69.850 123.911
36.010 69.976 110.010
38.080 69.932 95.676
40.260 69.713 81.256
42.560 69.331 66.944
45.000 68.802 52.837
47.580 68.154 39.093
50.310 67.413 25.742
53.190 66.607 12.809
56.230 65.754 0.234
59.460 64.864 -12.129
62.860 63.956 -24.240
66.460 63.032 -36.244
70.270 62.099 -48.206
74.300 61.161 -60.187
78.550 60.224 -72.212
83.050 59.286 -84.388
87.810 58.350 -96.758
92.840 57.417 -109.361
98.160 56.489 -122.262
103.780 55.567 -135.494
109.730 54.650 -149.139
116.020 53.742 -163.228
122.660 52.845 -177.796
129.690 51.958 167.059
137.120 51.083 151.301
144.970 50.221 134.873
153.280 49.373 117.674
162.060 48.540 99.663
171.340 47.722 80.758
181.160 46.918 60.854
191.540 46.127 39.887
202.510 45.347 17.773
214.110 44.575 -5.588
226.380 43.806 -30.292
239.350 43.037 -56.410
253.060 42.260 -84.019
267.560 41.470 -113.207
282.890 40.662 -144.028
299.090 39.830 -176.517
316.230 38.970 149.245
334.340 38.085 113.271
353.500 37.177 75.483
373.750 36.259 35.875
395.160 35.348 -5.647
417.800 34.467 -49.234
441.730 33.640 -95.107
467.040 32.882 -143.645
493.800 32.188 164.747
522.090 31.528 109.670
552.000 30.851 50.857
583.620 30.101 -11.735
617.050 29.243 -77.953
652.400 28.281 -147.578
689.780 27.260 139.518
729.290 26.251 63.217
771.080 25.314 -17.046
815.250 24.462 -101.957
861.950 23.643 167.839
911.330 22.788 72.140
963.540 21.881 -28.903
1018.740 20.994 -135.430
1077.110 20.167 111.584
1138.810 19.270 -8.796
1204.050 18.112 -136.091
1273.030 16.733 91.126
1345.960 15.426 -46.593
1423.070 14.513 169.104
1504.590 14.006 15.295
1590.790 13.655 -149.731
1681.920 13.254 33.733
1778.280 12.657 -154.340
1880.150 11.788 6.752
1987.870 10.766 157.064
2101.750 9.633 -64.001
2222.150 8.430 62.944
2349.460 7.126 177.204
2484.060 5.859 -81.407
2626.360 4.656 5.086
2776.820 3.391 76.107
2935.900 2.120 131.340
3104.100 1.028 169.668
3281.930 0.042 -172.250
3469.940 -1.194 -174.601
3668.730 -2.652 162.374
3878.910 -4.473 119.530
4101.130 -5.972 57.164
4336.070 -7.052 -31.766
4584.480 -8.519 -147.332
4847.120 -9.953 71.796
5124.810 -11.140 -97.798
5418.400 -12.426 60.222
5728.810 -13.793 -172.692
6057.010 -15.172 -79.446
6404.000 -16.437 -21.606
6770.880 -17.679 -3.696
7158.770 -19.195 -25.254
7568.890 -20.743 -88.444
8002.500 -22.201 163.067
8460.950 -23.770 7.473
8945.670 -25.313 161.856
9458.160 -26.947 -97.123
10000.000 -28.581 -51.133
