# Freq(Hz) SPL(dB) Phase (degrees)
10.000 52.978 -71.771
10.570 53.866 -75.730
11.180 54.757 -79.950
11.820 55.635 -84.359
12.500 56.509 -89.025
13.210 57.365 -93.877
13.970 58.223 -99.051
14.770 59.069 -104.479
15.620 59.910 -110.230
16.510 60.734 -116.238
17.460 61.556 -122.644
18.460 62.364 -129.388
19.510 63.155 -136.480
20.630 63.941 -144.071
21.810 64.708 -152.112
23.060 65.458 -160.697
24.380 66.182 -169.854
25.780 66.877 -179.685
27.260 67.527 169.781
28.820 68.116 158.525
30.470 68.626 146.479
32.220 69.034 133.615
34.060 69.310 120.109
36.010 69.434 105.989
38.080 69.386 91.425
40.260 69.164 76.761
42.560 68.777 62.192
45.000 68.244 47.813
47.580 67.591 33.781
50.310 66.845 20.126
53.190 66.033 6.872
56.230 65.172 -6.041
59.460 64.274 -18.763
62.860 63.357 -31.249
66.460 62.423 -43.651
70.270 61.478 -56.032
74.300 60.527 -68.454
78.550 59.575 -80.941
83.050 58.619 -93.603
87.810 57.663 -106.482
92.840 56.708 -119.617
98.160 55.754 -133.072
103.780 54.804 -146.879
109.730 53.855 -161.119
116.020 52.912 -175.821
122.660 51.975 168.985
129.690 51.043 153.201
137.120 50.120 136.799
144.970 49.207 119.725
153.280 48.304 101.884
162.060 47.413 83.241
171.340 46.536 63.718
181.160 45.672 43.215
191.540 44.824 21.670
202.510 43.991 -1.001
214.110 43.171 -24.901
226.380 42.364 -50.136
239.350 41.568 -76.786
253.060 40.779 -104.949
267.560 39.993 -134.736
282.890 39.206 -166.230
299.090 38.414 160.495
316.230 37.611 125.316
334.340 36.797 88.199
353.500 35.968 49.021
373.750 35.127 7.742
395.160 34.275 -35.735
417.800 33.420 -81.514
441.730 32.572 -129.697
467.040 31.743 179.525
493.800 30.946 125.954
522.090 30.188 69.322
552.000 29.469 9.313
583.620 28.772 -54.364
617.050 28.078 -121.944
652.400 27.366 166.400
689.780 26.628 90.535
729.290 25.859 10.348
771.080 25.059 -74.368
815.250 24.235 -163.697
861.950 23.405 102.173
911.330 22.606 2.969
963.540 21.878 -101.756
1018.740 21.253 147.304
1077.110 20.712 29.190
1138.810 20.155 -96.871
1204.050 19.436 128.972
1273.030 18.507 -12.766
1345.960 17.429 -161.805
1423.070 16.277 41.542
1504.590 15.104 -123.192
1590.790 13.961 63.380
1681.920 12.889 -119.545
1778.280 11.893 47.175
1880.150 11.016 -157.420
1987.870 10.160 -14.740
2101.750 9.206 114.780
2222.150 8.136 -128.949
2349.460 6.971 -26.682
2484.060 5.641 60.901
2626.360 4.129 133.923
2776.820 2.631 -168.155
2935.900 1.131 -127.484
3104.100 -0.465 -104.205
3281.930 -1.937 -99.517
3469.940 -3.514 -115.468
3668.730 -5.005 -151.171
3878.910 -6.275 149.086
4101.130 -7.744 64.477
4336.070 -9.395 -45.649
4584.480 -11.243 -179.656
4847.120 -12.586 18.800
5124.810 -13.746 -175.350
5418.400 -14.990 -42.387
5728.810 -16.773 56.980
6057.010 -18.469 121.439
6404.000 -20.306 148.962
6770.880 -22.034 137.234
7158.770 -24.054 80.523
7568.890 -26.066 -17.100
8002.500 -28.214 -162.381
8460.950 -30.632 2.936
8945.670 -33.226 115.608
9458.160 -35.942 173.741
10000.000 -39.001 172.869
