# Freq(Hz) SPL(dB) Phase (degrees)
10.000 51.374 -75.678
10.570 52.262 -79.860
11.180 53.153 -84.319
11.820 54.031 -88.978
12.500 54.905 -93.910
13.210 55.761 -99.040
13.970 56.619 -104.512
14.770 57.465 -110.253
15.620 58.307 -116.336
16.510 59.130 -122.693
17.460 59.953 -129.471
18.460 60.760 -136.607
19.510 61.552 -144.111
20.630 62.337 -152.141
21.810 63.104 -160.646
23.060 63.854 -169.721
24.380 64.579 -179.397
25.780 65.273 170.222
27.260 65.923 159.105
28.820 66.512 147.234
30.470 67.022 134.538
32.220 67.430 120.983
34.060 67.706 106.751
36.010 67.829 91.860
38.080 67.781 76.475
40.260 67.558 60.946
42.560 67.171 45.463
45.000 66.637 30.113
47.580 65.983 15.052
50.310 65.236 0.305
53.190 64.422 -14.104
56.230 63.560 -28.238
59.460 62.659 -42.262
62.860 61.738 -56.123
66.460 60.800 -69.985
70.270 59.850 -83.917
74.300 58.892 -97.985
78.550 57.931 -112.215
83.050 56.966 -126.729
87.810 55.997 -141.576
92.840 55.026 -156.799
98.160 54.053 -172.470
103.780 53.079 171.373
109.730 52.102 154.637
116.020 51.123 137.288
122.660 50.143 119.296
129.690 49.160 100.546
137.120 48.174 81.011
144.970 47.186 60.635
153.280 46.194 39.313
162.060 45.198 17.017
171.340 44.198 -6.329
181.160 43.191 -30.825
191.540 42.178 -56.522
202.510 41.158 -83.490
214.110 40.129 -111.825
226.380 39.088 -141.616
239.350 38.034 -172.926
253.060 36.965 154.165
267.560 35.878 119.561
282.890 34.773 83.198
299.090 33.649 45.020
316.230 32.505 4.914
334.340 31.347 -37.131
353.500 30.180 -81.237
373.750 29.017 -127.437
395.160 27.877 -175.854
417.800 26.782 133.345
441.730 25.761 79.942
467.040 24.836 23.551
493.800 24.018 -36.261
522.090 23.294 -99.971
552.000 22.628 -168.003
583.620 21.974 119.384
617.050 21.294 42.072
652.400 20.573 -40.012
689.780 19.812 -126.978
729.290 19.021 140.982
771.080 18.200 43.482
815.250 17.338 -59.754
861.950 16.414 -169.042
911.330 15.409 75.384
963.540 14.318 -46.660
1018.740 13.145 -175.450
1077.110 11.877 48.730
1138.810 10.512 -94.197
1204.050 9.090 115.594
1273.030 7.696 -42.252
1345.960 6.397 151.322
1423.070 5.180 -24.861
1504.590 3.952 148.380
1590.790 2.647 -49.319
1681.920 1.195 101.908
1778.280 -0.399 -117.360
1880.150 -1.835 13.070
1987.870 -2.826 130.375
2101.750 -3.515 -128.888
2222.150 -4.304 -46.233
2349.460 -5.539 18.614
2484.060 -7.324 67.491
2626.360 -9.586 102.057
2776.820 -11.657 123.568
2935.900 -12.821 126.210
3104.100 -13.647 103.361
3281.930 -14.882 55.145
3469.940 -16.689 -15.498
3668.730 -18.530 -108.723
3878.910 -20.380 131.523
4101.130 -22.819 -13.205
4336.070 -24.470 -179.891
4584.480 -24.762 -27.617
4847.120 -26.806 83.163
5124.810 -30.602 170.228
5418.400 -32.856 -136.023
5728.810 -36.237 -122.370
6057.010 -38.824 -148.394
6404.000 -42.740 142.297
6770.880 -46.247 31.829
7158.770 -50.013 -124.219
7568.890 -55.460 14.135
8002.500 -62.152 110.778
8460.950 -78.133 -99.556
8945.670 -70.110 -43.543
9458.160 -66.282 -131.680
10000.000 -65.901 84.054
