# Freq(Hz) SPL(dB) Phase (degrees)
10.000 50.997 -76.711
10.570 51.885 -80.952
11.180 52.777 -85.473
11.820 53.655 -90.199
12.500 54.529 -95.201
13.210 55.385 -100.404
13.970 56.244 -105.954
14.770 57.090 -111.778
15.620 57.932 -117.950
16.510 58.756 -124.399
17.460 59.579 -131.275
18.460 60.387 -138.514
19.510 61.179 -146.126
20.630 61.965 -154.272
21.810 62.733 -162.899
23.060 63.484 -172.104
24.380 64.210 178.083
25.780 64.905 167.557
27.260 65.557 156.287
28.820 66.147 144.254
30.470 66.659 131.387
32.220 67.068 117.650
34.060 67.346 103.227
36.010 67.471 88.133
38.080 67.426 72.533
40.260 67.206 56.777
42.560 66.822 41.054
45.000 66.292 25.449
47.580 65.642 10.118
50.310 64.899 -4.914
53.190 64.089 -19.624
56.230 63.232 -34.078
59.460 62.337 -48.442
62.860 61.423 -62.661
66.460 60.493 -76.904
70.270 59.551 -91.240
74.300 58.603 -105.736
78.550 57.653 -120.419
83.050 56.699 -135.415
87.810 55.743 -150.773
92.840 54.787 -166.539
98.160 53.830 177.213
103.780 52.874 160.443
109.730 51.916 143.054
116.020 50.959 125.011
122.660 50.005 106.280
129.690 49.049 86.742
137.120 48.094 66.367
144.970 47.140 45.094
153.280 46.186 22.811
162.060 45.233 -0.511
171.340 44.280 -24.956
181.160 43.327 -50.635
191.540 42.374 -77.602
202.510 41.420 -105.940
214.110 40.464 -135.756
226.380 39.506 -167.154
239.350 38.544 159.787
253.060 37.578 124.964
267.560 36.605 88.254
282.890 35.626 49.558
299.090 34.638 8.783
316.230 33.641 -34.241
334.340 32.636 -79.582
353.500 31.620 -127.434
373.750 30.597 -177.899
395.160 29.566 128.839
417.800 28.526 72.588
441.730 27.475 13.167
467.040 26.405 -49.678
493.800 25.302 -116.134
522.090 24.150 173.630
552.000 22.930 99.500
583.620 21.630 21.445
617.050 20.255 -60.542
652.400 18.830 -146.518
689.780 17.391 123.369
729.290 15.982 28.878
771.080 14.639 -70.436
815.250 13.402 -174.977
861.950 12.305 74.626
911.330 11.375 -42.425
963.540 10.604 -167.111
1018.740 9.928 59.561
1077.110 9.217 -83.251
1138.810 8.304 124.302
1204.050 7.106 -37.426
1273.030 5.616 151.953
1345.960 3.883 -27.711
1423.070 1.890 143.206
1504.590 -0.393 -55.341
1590.790 -2.997 96.996
1681.920 -5.846 -118.381
1778.280 -8.434 19.934
1880.150 -9.885 148.030
1987.870 -10.344 -102.199
2101.750 -10.665 -13.662
2222.150 -11.386 54.280
2349.460 -12.921 102.044
2484.060 -15.896 131.824
2626.360 -20.929 152.674
2776.820 -25.456 -171.766
2935.900 -22.902 -162.384
3104.100 -20.453 153.894
3281.930 -20.046 75.832
3469.940 -21.712 -27.360
3668.730 -25.107 -148.679
3878.910 -28.447 84.446
4101.130 -26.850 -77.753
4336.070 -26.695 66.098
4584.480 -28.780 171.332
4847.120 -33.693 -110.953
5124.810 -38.264 -51.815
5418.400 -39.548 -36.345
5728.810 -42.399 -83.949
6057.010 -48.584 162.257
6404.000 -62.019 -24.363
6770.880 -63.494 -146.666
7158.770 -51.531 -82.545
7568.890 -61.278 21.094
8002.500 -74.103 40.712
8460.950 -82.658 131.838
8945.670 -67.407 54.749
9458.160 -79.129 67.173
10000.000 -74.488 50.591
