# Freq(Hz) SPL(dB) Phase (degrees)
10.000 51.920 -74.265
10.570 52.807 -78.366
11.180 53.698 -82.739
11.820 54.576 -87.308
12.500 55.450 -92.143
13.210 56.305 -97.172
13.970 57.163 -102.537
14.770 58.009 -108.164
15.620 58.850 -114.127
16.510 59.673 -120.358
17.460 60.495 -127.002
18.460 61.303 -133.995
19.510 62.093 -141.350
20.630 62.878 -149.221
21.810 63.645 -157.558
23.060 64.394 -166.456
24.380 65.118 -175.944
25.780 65.811 173.874
27.260 66.460 162.968
28.820 67.048 151.320
30.470 67.557 138.859
32.220 67.964 125.555
34.060 68.238 111.586
36.010 68.359 96.975
38.080 68.310 81.888
40.260 68.085 66.673
42.560 67.696 51.522
45.000 67.159 36.524
47.580 66.502 21.837
50.310 65.752 7.487
53.190 64.934 -6.500
56.230 64.068 -20.190
59.460 63.163 -33.738
62.860 62.238 -47.097
66.460 61.295 -60.424
70.270 60.340 -73.787
74.300 59.376 -87.249
78.550 58.410 -100.837
83.050 57.437 -114.665
87.810 56.461 -128.781
92.840 55.483 -143.224
98.160 54.502 -158.063
103.780 53.520 -173.332
109.730 52.534 170.883
116.020 51.546 154.552
122.660 50.558 137.647
129.690 49.567 120.066
137.120 48.574 101.783
144.970 47.581 82.751
153.280 46.586 62.873
162.060 45.590 42.130
171.340 44.595 20.451
181.160 43.599 -2.253
191.540 42.605 -26.026
202.510 41.615 -50.934
214.110 40.628 -77.065
226.380 39.648 -104.508
239.350 38.676 -133.332
253.060 37.715 -163.628
267.560 36.767 164.486
282.890 35.838 130.910
299.090 34.930 95.537
316.230 34.046 58.187
334.340 33.191 18.757
353.500 32.366 -22.975
373.750 31.575 -67.158
395.160 30.815 -114.019
417.800 30.083 -163.797
441.730 29.370 143.283
467.040 28.659 86.938
493.800 27.928 26.962
522.090 27.148 -36.815
552.000 26.289 -104.500
583.620 25.328 -176.113
617.050 24.257 108.350
652.400 23.079 28.853
689.780 21.805 -54.699
729.290 20.442 -142.410
771.080 18.988 125.558
815.250 17.453 29.306
861.950 15.887 -71.032
911.330 14.417 -175.500
963.540 13.222 75.046
1018.740 12.371 -41.283
1077.110 11.723 -166.355
1138.810 11.019 59.247
1204.050 10.078 -83.861
1273.030 8.905 125.180
1345.960 7.630 -33.408
1423.070 6.369 159.604
1504.590 5.140 -16.895
1590.790 3.890 156.100
1681.920 2.477 -41.938
1778.280 0.801 109.690
1880.150 -0.935 -107.893
1987.870 -2.332 23.969
2101.750 -3.344 141.221
2222.150 -4.422 -116.843
2349.460 -5.429 -29.019
2484.060 -6.059 40.683
2626.360 -7.020 89.550
2776.820 -8.835 120.520
2935.900 -11.120 138.504
3104.100 -12.623 140.037
3281.930 -14.058 116.524
3469.940 -16.019 72.363
3668.730 -17.655 6.950
3878.910 -19.408 -86.729
4101.130 -22.006 158.983
4336.070 -23.106 21.993
4584.480 -24.181 -157.224
4847.120 -26.810 -3.649
5124.810 -29.405 119.910
5418.400 -32.164 -148.037
5728.810 -33.766 -91.807
6057.010 -37.281 -75.335
6404.000 -39.897 -97.245
6770.880 -43.823 -158.120
7158.770 -48.269 95.114
7568.890 -53.592 -60.550
8002.500 -59.461 108.348
8460.950 -65.517 -98.018
8945.670 -61.671 -12.193
9458.160 -58.930 -22.893
10000.000 -58.266 -84.858
