# Freq(Hz) SPL(dB) Phase (degrees)
10.000 52.131 -73.743
10.570 53.018 -77.814
11.180 53.909 -82.155
11.820 54.787 -86.690
12.500 55.661 -91.490
13.210 56.516 -96.482
13.970 57.374 -101.807
14.770 58.220 -107.393
15.620 59.061 -113.311
16.510 59.884 -119.495
17.460 60.706 -126.089
18.460 61.514 -133.030
19.510 62.304 -140.330
20.630 63.089 -148.143
21.810 63.856 -156.418
23.060 64.605 -165.250
24.380 65.328 -174.669
25.780 66.022 175.223
27.260 66.671 164.395
28.820 67.259 152.830
30.470 67.768 140.456
32.220 68.174 127.244
34.060 68.449 113.372
36.010 68.570 98.864
38.080 68.521 83.887
40.260 68.296 68.788
42.560 67.907 53.760
45.000 67.370 38.893
47.580 66.714 24.344
50.310 65.963 10.141
53.190 65.146 -3.692
56.230 64.280 -17.217
59.460 63.376 -30.590
62.860 62.451 -43.764
66.460 61.508 -56.894
70.270 60.554 -70.047
74.300 59.591 -83.287
78.550 58.625 -96.638
83.050 57.654 -110.215
87.810 56.680 -124.063
92.840 55.704 -138.222
98.160 54.726 -152.758
103.780 53.747 -167.704
109.730 52.765 176.854
116.020 51.783 160.889
122.660 50.801 144.373
129.690 49.818 127.205
137.120 48.836 109.361
144.970 47.855 90.793
153.280 46.875 71.408
162.060 45.898 51.183
171.340 44.925 30.048
181.160 43.957 7.913
191.540 42.996 -15.271
202.510 42.044 -39.574
214.110 41.103 -65.090
226.380 40.174 -91.919
239.350 39.261 -120.137
253.060 38.366 -149.851
267.560 37.491 178.810
282.890 36.637 145.730
299.090 35.806 110.792
316.230 34.998 73.808
334.340 34.213 34.672
353.500 33.448 -6.835
373.750 32.703 -50.853
395.160 31.972 -97.593
417.800 31.246 -147.271
441.730 30.512 159.916
467.040 29.752 103.719
493.800 28.937 43.974
522.090 28.037 -19.429
552.000 27.019 -86.519
583.620 25.861 -157.214
617.050 24.563 128.611
652.400 23.145 51.043
689.780 21.644 -29.915
729.290 20.105 -114.330
771.080 18.576 157.572
815.250 17.124 65.612
861.950 15.841 -30.730
911.330 14.809 -132.486
963.540 14.014 118.885
1018.740 13.303 2.239
1077.110 12.480 -122.688
1138.810 11.414 104.831
1204.050 10.144 -34.191
1273.030 8.889 -179.516
1345.960 7.872 27.354
1423.070 7.029 -135.969
1504.590 6.073 49.625
1590.790 4.822 -135.207
1681.920 3.284 30.713
1778.280 1.672 -171.935
1880.150 0.359 -24.018
1987.870 -0.475 110.762
2101.750 -1.228 -130.375
2222.150 -2.150 -26.901
2349.460 -3.291 60.805
2484.060 -4.992 133.058
2626.360 -6.839 -167.497
2776.820 -8.439 -124.237
2935.900 -10.151 -98.732
3104.100 -11.542 -89.869
3281.930 -12.331 -104.520
3469.940 -13.660 -145.151
3668.730 -15.608 153.725
3878.910 -17.466 70.887
4101.130 -19.387 -37.550
4336.070 -20.997 -170.754
4584.480 -22.670 22.490
4847.120 -25.276 -170.730
5124.810 -27.112 -33.036
5418.400 -29.194 66.561
5728.810 -31.964 130.776
6057.010 -35.264 162.559
6404.000 -37.565 151.879
6770.880 -41.330 98.789
7158.770 -45.797 6.777
7568.890 -50.619 -131.993
8002.500 -58.247 53.536
8460.950 -65.076 -128.575
8945.670 -60.755 -22.444
9458.160 -56.703 4.106
10000.000 -57.318 -54.732
