# Freq(Hz) SPL(dB) Phase (degrees)
10.000 53.066 -71.578
10.570 53.954 -75.526
11.180 54.845 -79.734
11.820 55.723 -84.131
12.500 56.597 -88.784
13.210 57.453 -93.622
13.970 58.311 -98.782
14.770 59.157 -104.194
15.620 59.999 -109.928
16.510 60.823 -115.919
17.460 61.645 -122.307
18.460 62.453 -129.031
19.510 63.244 -136.103
20.630 64.030 -143.672
21.810 64.798 -151.691
23.060 65.548 -160.251
24.380 66.272 -169.383
25.780 66.967 -179.187
27.260 67.618 170.308
28.820 68.207 159.082
30.470 68.718 147.068
32.220 69.126 134.238
34.060 69.403 120.768
36.010 69.527 106.686
38.080 69.480 92.162
40.260 69.259 77.541
42.560 68.874 63.016
45.000 68.341 48.685
47.580 67.690 34.703
50.310 66.945 21.101
53.190 66.134 7.903
56.230 65.276 -4.950
59.460 64.380 -17.609
62.860 63.465 -30.030
66.460 62.534 -42.361
70.270 61.592 -54.669
74.300 60.644 -67.013
78.550 59.696 -79.419
83.050 58.745 -91.995
87.810 57.795 -104.784
92.840 56.846 -117.826
98.160 55.899 -131.183
103.780 54.957 -144.889
109.730 54.018 -159.026
116.020 53.085 -173.623
122.660 52.161 171.289
129.690 51.244 155.611
137.120 50.337 139.312
144.970 49.442 122.336
153.280 48.559 104.585
162.060 47.690 86.021
171.340 46.838 66.562
181.160 46.001 46.101
191.540 45.180 24.573
202.510 44.377 1.889
214.110 43.588 -22.064
226.380 42.811 -47.394
239.350 42.044 -74.191
253.060 41.281 -102.557
267.560 40.518 -132.611
282.890 39.747 -164.442
299.090 38.962 161.872
316.230 38.156 126.200
334.340 37.323 88.505
353.500 36.457 48.655
373.750 35.552 6.609
395.160 34.605 -37.733
417.800 33.610 -84.461
441.730 32.563 -133.633
467.040 31.459 174.662
493.800 30.294 120.426
522.090 29.080 63.686
552.000 27.843 4.457
583.620 26.637 -57.360
617.050 25.520 -122.140
652.400 24.522 169.475
689.780 23.621 96.819
729.290 22.760 19.482
771.080 21.882 -62.725
815.250 20.965 -149.696
861.950 20.028 118.560
911.330 19.120 21.784
963.540 18.276 -80.595
1018.740 17.481 170.696
1077.110 16.654 55.097
1138.810 15.706 -67.263
1204.050 14.665 164.240
1273.030 13.748 29.362
1345.960 13.053 -113.989
1423.070 12.327 92.557
1504.590 11.330 -70.253
1590.790 10.135 118.721
1681.920 8.917 -60.891
1778.280 7.732 110.006
1880.150 6.657 -89.057
1987.870 5.776 60.082
2101.750 4.971 -163.773
2222.150 4.210 -41.499
2349.460 3.294 65.622
2484.060 2.063 158.611
2626.360 0.747 -122.229
2776.820 -0.560 -58.489
2935.900 -1.811 -11.036
3104.100 -2.980 17.992
3281.930 -4.253 28.209
3469.940 -5.337 18.392
3668.730 -6.571 -14.590
3878.910 -8.102 -70.256
4101.130 -9.909 -146.933
4336.070 -11.332 112.119
4584.480 -12.792 -17.680
4847.120 -14.703 -175.389
5124.810 -16.719 -0.526
5418.400 -18.415 143.077
5728.810 -20.388 -109.704
6057.010 -23.059 -34.628
6404.000 -25.255 6.173
6770.880 -27.676 2.162
7158.770 -31.074 -39.394
7568.890 -34.035 -124.344
8002.500 -38.189 101.512
8460.950 -42.939 -79.982
8945.670 -50.593 38.469
9458.160 -62.581 34.452
10000.000 -54.321 -11.261
