# Freq(Hz) SPL(dB) Phase (degrees)
10.000 52.239 -73.479
10.570 53.126 -77.536
11.180 54.018 -81.860
11.820 54.895 -86.379
12.500 55.769 -91.161
13.210 56.625 -96.135
13.970 57.483 -101.439
14.770 58.328 -107.004
15.620 59.169 -112.900
16.510 59.993 -119.060
17.460 60.815 -125.629
18.460 61.622 -132.544
19.510 62.413 -139.816
20.630 63.198 -147.599
21.810 63.964 -155.843
23.060 64.713 -164.642
24.380 65.437 -174.025
25.780 66.131 175.904
27.260 66.780 165.115
28.820 67.368 153.591
30.470 67.877 141.261
32.220 68.283 128.095
34.060 68.558 114.273
36.010 68.679 99.817
38.080 68.630 84.895
40.260 68.406 69.855
42.560 68.016 54.888
45.000 67.480 40.086
47.580 66.824 25.607
50.310 66.074 11.478
53.190 65.257 -2.277
56.230 64.391 -15.719
59.460 63.487 -29.004
62.860 62.563 -42.084
66.460 61.621 -55.116
70.270 60.667 -68.164
74.300 59.705 -81.292
78.550 58.741 -94.525
83.050 57.771 -107.977
87.810 56.798 -121.691
92.840 55.824 -135.707
98.160 54.848 -150.092
103.780 53.872 -164.879
109.730 52.894 179.850
116.020 51.915 164.065
122.660 50.939 147.739
129.690 49.961 130.773
137.120 48.986 113.142
144.970 48.013 94.798
153.280 47.043 75.648
162.060 46.078 55.667
171.340 45.119 34.786
181.160 44.167 12.910
191.540 43.224 -10.008
202.510 42.293 -34.045
214.110 41.376 -59.298
226.380 40.474 -85.870
239.350 39.590 -113.845
253.060 38.725 -143.332
267.560 37.881 -174.466
282.890 37.057 152.635
299.090 36.254 117.852
316.230 35.471 80.998
334.340 34.705 41.972
353.500 33.953 0.560
373.750 33.211 -43.368
395.160 32.474 -90.012
417.800 31.731 -139.577
441.730 30.969 167.755
467.040 30.166 111.753
493.800 29.295 52.276
522.090 28.322 -10.758
552.000 27.217 -77.332
583.620 25.959 -147.308
617.050 24.556 139.502
652.400 23.042 63.241
689.780 21.476 -16.073
729.290 19.929 -98.585
771.080 18.474 175.271
815.250 17.177 84.974
861.950 16.088 -10.348
911.330 15.203 -111.783
963.540 14.436 139.643
1018.740 13.637 23.460
1077.110 12.678 -100.126
1138.810 11.535 129.677
1204.050 10.352 -6.632
1273.030 9.355 -149.878
1345.960 8.607 57.696
1423.070 7.864 -105.699
1504.590 6.827 80.241
1590.790 5.425 -103.134
1681.920 3.821 65.284
1778.280 2.315 -134.775
1880.150 1.198 14.676
1987.870 0.413 149.958
2101.750 -0.495 -90.205
2222.150 -1.691 15.210
2349.460 -3.153 106.677
2484.060 -4.823 -174.515
2626.360 -6.118 -111.376
2776.820 -7.567 -66.761
2935.900 -9.107 -37.271
3104.100 -9.988 -27.923
3281.930 -11.191 -43.509
3469.940 -13.022 -78.762
3668.730 -14.844 -134.826
3878.910 -16.894 146.583
4101.130 -18.525 47.201
4336.070 -19.383 -85.841
4584.480 -21.525 110.397
4847.120 -23.959 -78.943
5124.810 -26.421 64.499
5418.400 -28.089 171.055
5728.810 -31.027 -117.541
6057.010 -33.281 -81.541
6404.000 -36.448 -88.948
6770.880 -40.859 -134.698
7158.770 -44.432 143.123
7568.890 -49.194 6.087
8002.500 -59.099 -150.031
8460.950 -65.412 44.677
8945.670 -58.597 163.151
9458.160 -56.398 166.497
10000.000 -55.597 138.882
