# Freq(Hz) SPL(dB) Phase (degrees)
10.000 52.675 -72.453
10.570 53.562 -76.452
11.180 54.454 -80.713
11.820 55.331 -85.166
12.500 56.205 -89.878
13.210 57.061 -94.779
13.970 57.919 -100.005
14.770 58.765 -105.488
15.620 59.606 -111.297
16.510 60.430 -117.366
17.460 61.251 -123.837
18.460 62.059 -130.649
19.510 62.850 -137.813
20.630 63.635 -145.480
21.810 64.402 -153.603
23.060 65.151 -162.273
24.380 65.875 -171.521
25.780 66.569 178.552
27.260 67.219 167.917
28.820 67.808 156.553
30.470 68.317 144.394
32.220 68.724 131.409
34.060 68.999 117.777
36.010 69.121 103.524
38.080 69.073 88.816
40.260 68.849 74.002
42.560 68.461 59.274
45.000 67.926 44.727
47.580 67.271 30.517
50.310 66.523 16.672
53.190 65.708 3.219
56.230 64.845 -9.905
59.460 63.943 -22.851
62.860 63.022 -35.574
66.460 62.083 -48.226
70.270 61.133 -60.872
74.300 60.176 -73.573
78.550 59.217 -86.356
83.050 58.254 -99.330
87.810 57.289 -112.538
92.840 56.323 -126.020
98.160 55.358 -139.839
103.780 54.394 -154.028
109.730 53.430 -168.669
116.020 52.468 176.211
122.660 51.510 160.583
129.690 50.556 144.350
137.120 49.606 127.484
144.970 48.664 109.938
153.280 47.727 91.615
162.060 46.801 72.488
171.340 45.885 52.482
181.160 44.980 31.500
191.540 44.089 9.486
202.510 43.212 -13.640
214.110 42.351 -37.981
226.380 41.504 -63.640
239.350 40.673 -90.704
253.060 39.856 -119.275
267.560 39.050 -149.477
282.890 38.255 178.588
299.090 37.467 144.825
316.230 36.682 109.080
334.340 35.898 71.288
353.500 35.110 31.282
373.750 34.316 -11.016
395.160 33.510 -55.743
417.800 32.690 -103.027
441.730 31.850 -152.965
467.040 30.985 154.301
493.800 30.094 98.700
522.090 29.180 40.165
552.000 28.254 -21.393
583.620 27.342 -86.103
617.050 26.473 -154.220
652.400 25.669 133.857
689.780 24.936 57.647
729.290 24.254 -23.295
771.080 23.585 -109.402
815.250 22.887 159.169
861.950 22.132 62.315
911.330 21.315 -40.004
963.540 20.459 -147.883
1018.740 19.600 98.482
1077.110 18.792 -21.359
1138.810 18.080 -148.139
1204.050 17.430 77.052
1273.030 16.741 -66.441
1345.960 15.902 141.275
1423.070 14.862 -19.473
1504.590 13.690 171.739
1590.790 12.539 -5.559
1681.920 11.474 167.468
1778.280 10.480 -30.279
1880.150 9.518 120.416
1987.870 8.511 -101.237
2101.750 7.478 24.602
2222.150 6.432 137.074
2349.460 5.364 -124.635
2484.060 4.276 -41.261
2626.360 3.183 26.270
2776.820 2.051 76.696
2935.900 0.779 109.544
3104.100 -0.497 124.577
3281.930 -1.702 119.410
3469.940 -3.090 93.078
3668.730 -4.488 45.701
3878.910 -5.861 -25.458
4101.130 -7.279 -120.991
4336.070 -8.689 116.707
4584.480 -10.240 -34.115
4847.120 -12.082 145.895
5124.810 -14.106 -64.019
5418.400 -16.333 54.321
5728.810 -18.721 139.711
6057.010 -21.198 -170.746
6404.000 -23.690 -158.411
6770.880 -26.176 173.406
7158.770 -28.767 103.970
7568.890 -31.521 -12.405
8002.500 -34.473 -177.362
8460.950 -37.880 -33.208
8945.670 -42.245 55.765
9458.160 -47.516 85.170
10000.000 -56.410 50.228
