# Freq(Hz) SPL(dB) Phase (degrees)
10.000 52.879 -71.992
10.570 53.766 -75.964
11.180 54.658 -80.197
11.820 55.535 -84.621
12.500 56.410 -89.302
13.210 57.265 -94.169
13.970 58.124 -99.361
14.770 58.970 -104.806
15.620 59.811 -110.576
16.510 60.635 -116.604
17.460 61.457 -123.031
18.460 62.265 -129.796
19.510 63.056 -136.912
20.630 63.841 -144.527
21.810 64.608 -152.595
23.060 65.358 -161.208
24.380 66.083 -170.394
25.780 66.777 179.744
27.260 67.427 169.177
28.820 68.016 157.886
30.470 68.526 145.804
32.220 68.934 132.901
34.060 69.210 119.354
36.010 69.333 105.192
38.080 69.286 90.581
40.260 69.064 75.869
42.560 68.677 61.249
45.000 68.144 46.816
47.580 67.491 32.726
50.310 66.744 19.011
53.190 65.931 5.693
56.230 65.071 -7.288
59.460 64.172 -20.081
62.860 63.255 -32.643
66.460 62.320 -45.125
70.270 61.375 -57.590
74.300 60.424 -70.101
78.550 59.471 -82.682
83.050 58.515 -95.443
87.810 57.558 -108.427
92.840 56.602 -121.672
98.160 55.648 -135.243
103.780 54.697 -149.172
109.730 53.748 -163.541
116.020 52.803 -178.378
122.660 51.866 166.287
129.690 50.934 150.354
137.120 50.011 133.795
144.970 49.099 116.556
153.280 48.196 98.541
162.060 47.308 79.714
171.340 46.434 59.995
181.160 45.576 39.280
191.540 44.734 17.504
202.510 43.911 -5.421
214.110 43.104 -29.607
226.380 42.312 -55.166
239.350 41.535 -82.191
253.060 40.767 -110.791
267.560 40.005 -141.094
282.890 39.242 -173.200
299.090 38.475 152.799
316.230 37.694 116.757
334.340 36.894 78.617
353.500 36.069 38.226
373.750 35.212 -4.482
395.160 34.315 -49.632
417.800 33.369 -97.345
441.730 32.363 -147.702
467.040 31.280 159.189
493.800 30.105 103.338
522.090 28.827 44.841
552.000 27.460 -16.124
583.620 26.053 -79.379
617.050 24.702 -145.011
652.400 23.502 146.403
689.780 22.490 73.902
729.290 21.616 -3.385
771.080 20.786 -85.961
815.250 19.925 -173.772
861.950 19.018 93.339
911.330 18.111 -4.604
963.540 17.276 -107.995
1018.740 16.551 142.287
1077.110 15.870 25.178
1138.810 15.077 -99.671
1204.050 14.073 128.346
1273.030 12.969 -10.086
1345.960 11.952 -155.775
1423.070 10.985 49.597
1504.590 9.887 -114.269
1590.790 8.645 73.315
1681.920 7.416 -107.743
1778.280 6.320 61.516
1880.150 5.406 -140.253
1987.870 4.620 5.013
2101.750 3.692 136.647
2222.150 2.589 -104.261
2349.460 1.505 1.634
2484.060 0.475 92.206
2626.360 -0.749 166.713
2776.820 -2.161 -133.873
2935.900 -3.566 -90.675
3104.100 -4.855 -64.264
3281.930 -5.831 -58.757
3469.940 -7.101 -75.095
3668.730 -8.568 -112.996
3878.910 -10.318 -171.728
4101.130 -11.678 106.890
4336.070 -13.097 -3.034
4584.480 -14.995 -139.733
4847.120 -17.080 57.912
5124.810 -18.829 -133.941
5418.400 -20.575 0.635
5728.810 -22.959 99.943
6057.010 -25.714 167.732
6404.000 -28.112 -163.213
6770.880 -31.206 -174.422
7158.770 -34.819 135.314
7568.890 -38.574 35.814
8002.500 -44.177 -106.804
8460.950 -52.072 61.571
8945.670 -64.763 70.810
9458.160 -53.639 75.727
10000.000 -50.643 71.304
