# Freq(Hz) SPL(dB) Phase (degrees)
10.000 52.881 -71.986
10.570 53.769 -75.957
11.180 54.660 -80.190
11.820 55.538 -84.614
12.500 56.412 -89.294
13.210 57.268 -94.161
13.970 58.126 -99.352
14.770 58.972 -104.797
15.620 59.813 -110.566
16.510 60.637 -116.593
17.460 61.459 -123.020
18.460 62.267 -129.785
19.510 63.058 -136.900
20.630 63.843 -144.515
21.810 64.610 -152.582
23.060 65.360 -161.194
24.380 66.084 -170.379
25.780 66.778 179.760
27.260 67.429 169.194
28.820 68.017 157.904
30.470 68.527 145.822
32.220 68.935 132.920
34.060 69.211 119.375
36.010 69.334 105.213
38.080 69.286 90.603
40.260 69.063 75.892
42.560 68.676 61.273
45.000 68.142 46.841
47.580 67.489 32.753
50.310 66.742 19.038
53.190 65.928 5.722
56.230 65.067 -7.257
59.460 64.167 -20.049
62.860 63.249 -32.610
66.460 62.313 -45.090
70.270 61.367 -57.554
74.300 60.413 -70.063
78.550 59.459 -82.643
83.050 58.501 -95.402
87.810 57.541 -108.383
92.840 56.583 -121.627
98.160 55.625 -135.194
103.780 54.670 -149.120
109.730 53.716 -163.483
116.020 52.767 -178.314
122.660 51.823 166.359
129.690 50.884 150.438
137.120 49.952 133.895
144.970 49.030 116.678
153.280 48.116 98.692
162.060 47.214 79.904
171.340 46.324 60.238
181.160 45.448 39.593
191.540 44.587 17.909
202.510 43.741 -4.896
214.110 42.910 -28.926
226.380 42.092 -54.288
239.350 41.287 -81.063
253.060 40.491 -109.352
267.560 39.701 -139.271
282.890 38.914 -170.909
299.090 38.125 155.653
316.230 37.330 120.281
334.340 36.526 82.932
353.500 35.710 43.470
373.750 34.882 1.844
395.160 34.042 -42.053
417.800 33.192 -88.328
441.730 32.338 -137.072
467.040 31.487 171.553
493.800 30.649 117.402
522.090 29.835 60.278
552.000 29.051 -0.076
583.620 28.299 -63.939
617.050 27.572 -131.599
652.400 26.858 156.668
689.780 26.146 80.619
729.290 25.420 0.059
771.080 24.665 -85.256
815.250 23.870 -175.393
861.950 23.043 89.534
911.330 22.211 -10.630
963.540 21.421 -116.198
1018.740 20.719 132.266
1077.110 20.121 13.854
1138.810 19.565 -112.354
1204.050 18.912 113.136
1273.030 18.077 -29.423
1345.960 17.062 -179.694
1423.070 15.925 22.337
1504.590 14.752 -143.577
1590.790 13.629 41.803
1681.920 12.583 -142.515
1778.280 11.591 22.580
1880.150 10.667 176.421
1987.870 9.757 -42.158
2101.750 8.797 86.208
2222.150 7.743 -158.745
2349.460 6.629 -57.617
2484.060 5.447 28.600
2626.360 4.117 99.326
2776.820 2.699 154.563
2935.900 1.323 -167.279
3104.100 -0.144 -147.572
3281.930 -1.627 -146.309
3469.940 -3.104 -165.948
3668.730 -4.732 153.668
3878.910 -6.143 91.285
4101.130 -7.504 2.776
4336.070 -9.088 -111.671
4584.480 -10.977 107.487
4847.120 -12.861 -59.980
5124.810 -14.493 103.287
5418.400 -16.092 -125.809
5728.810 -17.899 -31.502
6057.010 -19.845 29.056
6404.000 -21.856 52.110
6770.880 -23.813 36.639
7158.770 -25.647 -23.029
7568.890 -27.832 -128.346
8002.500 -30.147 78.636
8460.950 -32.834 -123.508
8945.670 -35.908 -17.505
9458.160 -39.363 33.070
10000.000 -43.314 26.936
