# Freq(Hz) SPL(dB) Phase (degrees)
10.000 53.408 -70.842
10.570 54.296 -74.749
11.180 55.188 -78.912
11.820 56.066 -83.262
12.500 56.940 -87.865
13.210 57.796 -92.651
13.970 58.655 -97.754
14.770 59.501 -103.108
15.620 60.343 -108.780
16.510 61.167 -114.705
17.460 61.989 -121.023
18.460 62.798 -127.674
19.510 63.590 -134.669
20.630 64.376 -142.155
21.810 65.144 -150.087
23.060 65.894 -158.556
24.380 66.620 -167.590
25.780 67.315 -177.291
27.260 67.967 172.313
28.820 68.557 161.201
30.470 69.069 149.309
32.220 69.478 136.607
34.060 69.756 123.273
36.010 69.882 109.335
38.080 69.837 94.963
40.260 69.617 80.502
42.560 69.234 66.147
45.000 68.704 51.995
47.580 68.055 38.203
50.310 67.313 24.801
53.190 66.506 11.814
56.230 65.651 -0.816
59.460 64.759 -13.239
62.860 63.849 -25.411
66.460 62.923 -37.481
70.270 61.988 -49.512
74.300 61.048 -61.565
78.550 60.107 -73.665
83.050 59.166 -85.920
87.810 58.225 -98.371
92.840 57.288 -111.061
98.160 56.354 -124.049
103.780 55.427 -137.372
109.730 54.504 -151.109
116.020 53.589 -165.293
122.660 52.684 -179.955
129.690 51.788 164.804
137.120 50.904 148.952
144.970 50.033 132.433
153.280 49.174 115.145
162.060 48.330 97.050
171.340 47.502 78.066
181.160 46.687 58.090
191.540 45.886 37.058
202.510 45.097 14.887
214.110 44.317 -8.524
226.380 43.542 -33.272
239.350 42.768 -59.426
253.060 41.991 -87.068
267.560 41.204 -116.286
282.890 40.401 -147.137
299.090 39.580 -179.661
316.230 38.736 146.057
334.340 37.872 110.026
353.500 36.991 72.161
373.750 36.106 32.447
395.160 35.234 -9.213
417.800 34.397 -52.979
441.730 33.619 -99.075
467.040 32.915 -147.885
493.800 32.281 160.180
522.090 31.686 104.713
552.000 31.080 45.433
583.620 30.404 -17.715
617.050 29.622 -84.594
652.400 28.734 -154.990
689.780 27.779 131.235
729.290 26.823 54.020
771.080 25.929 -27.101
815.250 25.132 -112.741
861.950 24.412 156.386
911.330 23.721 59.818
963.540 23.029 -42.672
1018.740 22.340 -151.440
1077.110 21.622 92.801
1138.810 20.752 -30.349
1204.050 19.614 -160.376
1273.030 18.268 63.523
1345.960 16.860 -78.713
1423.070 15.466 132.392
1504.590 14.193 -23.387
1590.790 13.256 172.724
1681.920 12.677 -1.821
1778.280 12.210 171.199
1880.150 11.624 -28.217
1987.870 10.889 119.892
2101.750 9.862 -104.936
2222.150 8.447 18.454
2349.460 6.859 130.942
2484.060 5.474 -128.386
2626.360 4.390 -42.768
2776.820 3.393 25.723
2935.900 2.272 76.867
3104.100 1.124 110.449
3281.930 -0.112 124.805
3469.940 -1.386 118.528
3668.730 -3.474 90.615
3878.910 -5.894 49.908
4101.130 -6.706 -11.340
4336.070 -7.238 -105.881
4584.480 -8.751 132.212
4847.120 -10.243 -11.550
5124.810 -11.178 173.954
5418.400 -12.361 -32.673
5728.810 -13.533 88.524
6057.010 -14.819 174.879
6404.000 -16.127 -133.087
6770.880 -17.252 -121.802
7158.770 -18.602 -150.558
7568.890 -20.023 137.977
8002.500 -21.585 21.827
8460.950 -23.063 -141.617
8945.670 -24.573 4.188
9458.160 -25.953 96.267
10000.000 -27.642 131.842
