# Freq(Hz) SPL(dB) Phase (degrees)
10.000 52.024 -74.005
10.570 52.911 -78.092
11.180 53.803 -82.448
11.820 54.680 -87.001
12.500 55.554 -91.818
13.210 56.409 -96.829
13.970 57.268 -102.174
14.770 58.113 -107.781
15.620 58.954 -113.721
16.510 59.778 -119.929
17.460 60.599 -126.548
18.460 61.407 -133.515
19.510 62.198 -140.843
20.630 62.982 -148.685
21.810 63.749 -156.991
23.060 64.498 -165.856
24.380 65.222 -175.310
25.780 65.915 174.545
27.260 66.564 163.678
28.820 67.152 152.071
30.470 67.661 139.654
32.220 68.068 126.395
34.060 68.342 112.474
36.010 68.463 97.915
38.080 68.414 82.882
40.260 68.189 67.725
42.560 67.800 52.635
45.000 67.263 37.702
47.580 66.606 23.084
50.310 65.856 8.807
53.190 65.038 -5.103
56.230 64.172 -18.711
59.460 63.267 -32.172
62.860 62.342 -45.439
66.460 61.399 -58.668
70.270 60.444 -71.927
74.300 59.481 -85.278
78.550 58.515 -98.747
83.050 57.543 -112.451
87.810 56.567 -126.433
92.840 55.590 -140.734
98.160 54.610 -155.422
103.780 53.629 -170.530
109.730 52.645 173.857
116.020 51.659 157.709
122.660 50.674 140.999
129.690 49.686 123.625
137.120 48.698 105.563
144.970 47.711 86.765
153.280 46.722 67.137
162.060 45.735 46.656
171.340 44.750 25.255
181.160 43.767 2.841
191.540 42.788 -20.628
202.510 41.816 -45.222
214.110 40.851 -71.032
226.380 39.896 -98.150
239.350 38.953 -126.651
253.060 38.025 -156.633
267.560 37.115 171.779
282.890 36.225 138.478
299.090 35.359 103.349
316.230 34.517 66.206
334.340 33.702 26.943
353.500 32.914 -14.664
373.750 32.153 -58.760
395.160 31.415 -105.566
417.800 30.694 -155.311
441.730 29.978 151.795
467.040 29.250 95.486
493.800 28.483 35.576
522.090 27.648 -28.075
552.000 26.714 -95.536
583.620 25.657 -166.776
617.050 24.472 118.267
652.400 23.170 39.617
689.780 21.771 -42.766
729.290 20.298 -128.951
771.080 18.773 140.912
815.250 17.236 46.864
861.950 15.773 -51.207
911.330 14.522 -153.882
963.540 13.580 97.404
1018.740 12.874 -19.132
1077.110 12.188 -144.521
1138.810 11.304 81.500
1204.050 10.144 -60.063
1273.030 8.826 151.592
1345.960 7.568 -3.921
1423.070 6.476 -168.333
1504.590 5.423 16.809
1590.790 4.233 -168.951
1681.920 2.781 -5.103
1778.280 1.118 149.402
1880.150 -0.427 -65.086
1987.870 -1.505 68.766
2101.750 -2.317 -172.802
2222.150 -3.177 -69.652
2349.460 -3.988 17.536
2484.060 -5.066 85.938
2626.360 -6.805 138.192
2776.820 -8.856 176.765
2935.900 -10.658 -160.442
3104.100 -12.284 -157.368
3281.930 -13.864 -173.353
3469.940 -14.997 147.327
3668.730 -16.529 81.515
3878.910 -18.675 -5.748
4101.130 -20.133 -115.272
4336.070 -21.461 102.345
4584.480 -23.645 -68.962
4847.120 -26.089 90.645
5124.810 -29.127 -134.626
5418.400 -30.466 -35.023
5728.810 -33.345 19.685
6057.010 -35.412 43.353
6404.000 -39.271 24.836
6770.880 -42.640 -31.577
7158.770 -46.104 -129.310
7568.890 -51.543 84.427
8002.500 -59.545 -101.731
8460.950 -60.914 83.353
8945.670 -60.539 178.140
9458.160 -58.514 175.760
10000.000 -61.803 92.696
