# Freq(Hz) SPL(dB) Phase (degrees)
10.000 53.069 -71.570
10.570 53.957 -75.518
11.180 54.848 -79.726
11.820 55.726 -84.122
12.500 56.600 -88.774
13.210 57.456 -93.612
13.970 58.314 -98.771
14.770 59.160 -104.183
15.620 60.002 -109.917
16.510 60.826 -115.907
17.460 61.648 -122.294
18.460 62.456 -129.017
19.510 63.247 -136.089
20.630 64.033 -143.657
21.810 64.800 -151.675
23.060 65.550 -160.234
24.380 66.275 -169.365
25.780 66.969 -179.167
27.260 67.620 170.328
28.820 68.209 159.103
30.470 68.720 147.091
32.220 69.128 134.261
34.060 69.404 120.793
36.010 69.528 106.713
38.080 69.481 92.190
40.260 69.259 77.570
42.560 68.873 63.047
45.000 68.341 48.718
47.580 67.689 34.738
50.310 66.943 21.138
53.190 66.132 7.942
56.230 65.273 -4.909
59.460 64.375 -17.566
62.860 63.459 -29.984
66.460 62.527 -42.313
70.270 61.584 -54.618
74.300 60.635 -66.958
78.550 59.685 -79.361
83.050 58.732 -91.933
87.810 57.779 -104.717
92.840 56.827 -117.754
98.160 55.878 -131.105
103.780 54.932 -144.803
109.730 53.989 -158.930
116.020 53.051 -173.515
122.660 52.120 171.411
129.690 51.196 155.752
137.120 50.282 139.476
144.970 49.377 122.531
153.280 48.484 104.818
162.060 47.603 86.305
171.340 46.737 66.910
181.160 45.885 46.531
191.540 45.048 25.108
202.510 44.225 2.557
214.110 43.416 -21.228
226.380 42.618 -46.349
239.350 41.829 -72.886
253.060 41.045 -100.932
267.560 40.260 -130.594
282.890 39.472 -161.950
299.090 38.675 164.935
316.230 37.866 129.944
334.340 37.041 93.057
353.500 36.201 54.158
373.750 35.348 13.219
395.160 34.489 -29.854
417.800 33.634 -75.168
441.730 32.798 -122.841
467.040 31.996 -173.102
493.800 31.242 133.797
522.090 30.537 77.528
552.000 29.868 17.744
583.620 29.207 -45.826
617.050 28.523 -113.341
652.400 27.795 175.124
689.780 27.020 99.525
729.290 26.207 19.804
771.080 25.371 -64.240
815.250 24.533 -152.748
861.950 23.721 113.987
911.330 22.965 15.567
963.540 22.295 -88.551
1018.740 21.719 160.903
1077.110 21.195 43.014
1138.810 20.603 -82.808
1204.050 19.802 143.564
1273.030 18.789 2.779
1345.960 17.664 -145.046
1423.070 16.498 59.476
1504.590 15.300 -104.159
1590.790 14.114 83.703
1681.920 13.016 -97.645
1778.280 12.046 70.770
1880.150 11.233 -132.426
1987.870 10.414 11.379
2101.750 9.461 142.043
2222.150 8.365 -100.615
2349.460 7.091 2.767
2484.060 5.574 92.183
2626.360 3.926 167.902
2776.820 2.343 -131.487
2935.900 0.738 -87.390
3104.100 -0.791 -60.451
3281.930 -2.249 -52.468
3469.940 -3.662 -64.019
3668.730 -4.824 -97.488
3878.910 -6.135 -155.248
4101.130 -7.634 123.597
4336.070 -9.381 18.877
4584.480 -10.655 -109.770
4847.120 -11.574 90.056
5124.810 -12.771 -102.065
5418.400 -14.210 34.026
5728.810 -15.746 138.013
6057.010 -17.426 -153.339
6404.000 -19.095 -121.521
6770.880 -20.854 -129.242
7158.770 -22.912 -177.935
7568.890 -24.683 89.912
8002.500 -26.670 -49.878
8460.950 -28.710 121.803
8945.670 -30.992 -118.416
9458.160 -33.399 -53.438
10000.000 -36.085 -47.123
