# Freq(Hz) SPL(dB) Phase (degrees)
10.000 52.975 -71.778
10.570 53.863 -75.737
11.180 54.754 -79.958
11.820 55.632 -84.367
12.500 56.506 -89.034
13.210 57.362 -93.886
13.970 58.220 -99.061
14.770 59.066 -104.489
15.620 59.907 -110.241
16.510 60.731 -116.250
17.460 61.554 -122.656
18.460 62.362 -129.400
19.510 63.153 -136.493
20.630 63.938 -144.085
21.810 64.706 -152.127
23.060 65.456 -160.713
24.380 66.180 -169.871
25.780 66.875 -179.703
27.260 67.525 169.762
28.820 68.115 158.505
30.470 68.625 146.458
32.220 69.033 133.593
34.060 69.309 120.086
36.010 69.433 105.965
38.080 69.386 91.399
40.260 69.164 76.734
42.560 68.778 62.164
45.000 68.245 47.783
47.580 67.593 33.750
50.310 66.848 20.093
53.190 66.036 6.837
56.230 65.176 -6.077
59.460 64.279 -18.801
62.860 63.363 -31.290
66.460 62.430 -43.694
70.270 61.486 -56.077
74.300 60.537 -68.501
78.550 59.586 -80.991
83.050 58.633 -93.656
87.810 57.679 -106.539
92.840 56.727 -119.678
98.160 55.776 -133.138
103.780 54.830 -146.951
109.730 53.886 -161.198
116.020 52.948 -175.909
122.660 52.017 168.884
129.690 51.093 153.085
137.120 50.178 136.662
144.970 49.275 119.562
153.280 48.382 101.685
162.060 47.505 82.997
171.340 46.642 63.415
181.160 45.795 42.834
191.540 44.965 21.188
202.510 44.153 -1.611
214.110 43.356 -25.675
226.380 42.573 -51.117
239.350 41.801 -78.025
253.060 41.037 -106.507
267.560 40.275 -136.686
282.890 39.510 -168.656
299.090 38.734 157.496
316.230 37.941 121.633
334.340 37.125 83.709
353.500 36.278 43.579
373.750 35.396 1.192
395.160 34.472 -43.566
417.800 33.498 -90.799
441.730 32.466 -140.575
467.040 31.364 167.015
493.800 30.184 111.984
522.090 28.925 54.409
552.000 27.610 -5.596
583.620 26.297 -67.990
617.050 25.068 -133.031
652.400 23.985 158.608
689.780 23.049 86.075
729.290 22.197 8.742
771.080 21.349 -73.693
815.250 20.459 -161.106
861.950 19.534 106.599
911.330 18.630 9.299
963.540 17.802 -93.543
1018.740 17.058 157.199
1077.110 16.308 40.704
1138.810 15.419 -83.050
1204.050 14.355 146.699
1273.030 13.308 10.290
1345.960 12.456 -133.867
1423.070 11.644 72.277
1504.590 10.623 -91.073
1590.790 9.412 97.179
1681.920 8.196 -83.133
1778.280 7.068 86.896
1880.150 6.066 -113.661
1987.870 5.193 33.475
2101.750 4.269 167.668
2222.150 3.354 -70.963
2349.460 2.469 35.717
2484.060 1.381 126.875
2626.360 0.033 -156.624
2776.820 -1.398 -94.819
2935.900 -2.774 -48.721
3104.100 -3.838 -20.406
3281.930 -4.936 -13.634
3469.940 -6.215 -26.513
3668.730 -7.621 -61.649
3878.910 -9.163 -117.906
4101.130 -10.692 162.012
4336.070 -12.251 56.974
4584.480 -13.856 -75.396
4847.120 -15.782 123.629
5124.810 -17.864 -64.516
5418.400 -19.415 75.037
5728.810 -21.587 177.130
6057.010 -24.463 -109.751
6404.000 -26.612 -74.634
6770.880 -29.364 -82.493
7158.770 -32.699 -127.266
7568.890 -36.417 140.168
8002.500 -41.130 1.297
8460.950 -47.129 171.617
8945.670 -57.850 -91.347
9458.160 -56.713 -142.177
10000.000 -51.575 -151.610
