# Freq(Hz) SPL(dB) Phase (degrees)
10.000 53.299 -71.073
10.570 54.187 -74.993
11.180 55.079 -79.170
11.820 55.956 -83.535
12.500 56.831 -88.153
13.210 57.687 -92.956
13.970 58.545 -98.077
14.770 59.391 -103.449
15.620 60.233 -109.140
16.510 61.057 -115.087
17.460 61.880 -121.426
18.460 62.688 -128.100
19.510 63.479 -135.119
20.630 64.265 -142.631
21.810 65.033 -150.591
23.060 65.783 -159.088
24.380 66.509 -168.153
25.780 67.204 -177.886
27.260 67.855 171.683
28.820 68.445 160.536
30.470 68.956 148.606
32.220 69.365 135.864
34.060 69.643 122.487
36.010 69.768 108.504
38.080 69.722 94.084
40.260 69.502 79.573
42.560 69.117 65.165
45.000 68.586 50.956
47.580 67.936 37.105
50.310 67.194 23.641
53.190 66.384 10.588
56.230 65.528 -2.112
59.460 64.635 -14.608
62.860 63.722 -26.858
66.460 62.794 -39.009
70.270 61.857 -51.126
74.300 60.913 -63.269
78.550 59.970 -75.464
83.050 59.024 -87.817
87.810 58.079 -100.373
92.840 57.137 -113.170
98.160 56.198 -126.271
103.780 55.264 -139.710
109.730 54.335 -153.567
116.020 53.412 -167.874
122.660 52.499 177.339
129.690 51.594 161.971
137.120 50.700 145.991
144.970 49.818 129.344
153.280 48.948 111.929
162.060 48.093 93.710
171.340 47.253 74.606
181.160 46.427 54.512
191.540 45.615 33.366
202.510 44.816 11.084
214.110 44.028 -12.437
226.380 43.247 -37.293
239.350 42.470 -63.560
253.060 41.692 -91.321
267.560 40.907 -120.673
282.890 40.111 -151.676
299.090 39.299 175.621
316.230 38.467 141.124
334.340 37.616 104.834
353.500 36.749 66.656
373.750 35.876 26.576
395.160 35.009 -15.500
417.800 34.168 -59.710
441.730 33.377 -106.244
467.040 32.651 -155.440
493.800 31.994 152.325
522.090 31.387 96.644
552.000 30.786 37.195
583.620 30.140 -26.154
617.050 29.411 -93.351
652.400 28.587 -164.254
689.780 27.694 121.243
729.290 26.778 43.116
771.080 25.893 -38.966
815.250 25.079 -125.436
861.950 24.347 143.079
911.330 23.680 46.019
963.540 23.056 -57.065
1018.740 22.461 -166.690
1077.110 21.841 76.442
1138.810 21.070 -47.981
1204.050 20.044 -179.478
1273.030 18.829 42.628
1345.960 17.557 -101.951
1423.070 16.247 106.005
1504.590 14.890 -53.485
1590.790 13.658 139.480
1681.920 12.725 -36.730
1778.280 12.046 135.681
1880.150 11.416 -64.599
1987.870 10.670 82.196
2101.750 9.710 -144.276
2222.150 8.378 -23.712
2349.460 6.712 85.056
2484.060 4.999 -177.655
2626.360 3.484 -93.630
2776.820 2.261 -24.882
2935.900 1.263 25.752
3104.100 0.162 57.962
3281.930 -0.736 71.123
3469.940 -1.711 61.959
3668.730 -3.154 29.745
3878.910 -5.462 -21.255
4101.130 -7.285 -87.581
4336.070 -7.841 177.856
4584.480 -8.934 50.991
4847.120 -10.757 -100.605
5124.810 -12.123 82.541
5418.400 -13.170 -127.313
5728.810 -14.196 -11.223
6057.010 -15.268 68.764
6404.000 -16.650 111.741
6770.880 -18.020 117.138
7158.770 -19.627 81.078
7568.890 -21.261 3.025
8002.500 -22.839 -120.881
8460.950 -24.468 67.395
8945.670 -26.112 -155.495
9458.160 -27.826 -71.804
10000.000 -29.433 -47.225
