# Freq(Hz) SPL(dB) Phase (degrees)
10.000 51.916 -74.275
10.570 52.803 -78.377
11.180 53.694 -82.750
11.820 54.572 -87.320
12.500 55.446 -92.156
13.210 56.301 -97.186
13.970 57.159 -102.551
14.770 58.005 -108.179
15.620 58.846 -114.143
16.510 59.670 -120.375
17.460 60.491 -127.020
18.460 61.299 -134.014
19.510 62.090 -141.370
20.630 62.874 -149.243
21.810 63.641 -157.581
23.060 64.390 -166.480
24.380 65.114 -175.970
25.780 65.808 173.847
27.260 66.457 162.939
28.820 67.045 151.289
30.470 67.554 138.827
32.220 67.960 125.520
34.060 68.235 111.549
36.010 68.356 96.935
38.080 68.307 81.845
40.260 68.082 66.627
42.560 67.693 51.473
45.000 67.156 36.472
47.580 66.500 21.781
50.310 65.750 7.427
53.190 64.932 -6.565
56.230 64.066 -20.260
59.460 63.162 -33.814
62.860 62.237 -47.179
66.460 61.294 -60.513
70.270 60.339 -73.884
74.300 59.375 -87.355
78.550 58.409 -100.952
83.050 57.437 -114.792
87.810 56.461 -128.919
92.840 55.482 -143.377
98.160 54.501 -158.231
103.780 53.519 -173.518
109.730 52.532 170.676
116.020 51.544 154.323
122.660 50.555 137.392
129.690 49.562 119.781
137.120 48.568 101.466
144.970 47.572 82.397
153.280 46.573 62.479
162.060 45.572 41.690
171.340 44.570 19.963
181.160 43.565 -2.791
191.540 42.560 -26.615
202.510 41.555 -51.572
214.110 40.550 -77.744
226.380 39.547 -105.215
239.350 38.547 -134.041
253.060 37.553 -164.304
267.560 36.570 163.896
282.890 35.601 130.476
299.090 34.653 95.345
316.230 33.735 58.334
334.340 32.855 19.342
353.500 32.022 -21.869
373.750 31.243 -65.480
395.160 30.520 -111.770
417.800 29.849 -161.036
441.730 29.216 146.440
467.040 28.597 90.334
493.800 27.959 30.425
522.090 27.260 -33.438
552.000 26.461 -101.304
583.620 25.532 -173.099
617.050 24.466 111.303
652.400 23.277 31.992
689.780 22.000 -51.027
729.290 20.676 -137.839
771.080 19.343 131.274
815.250 18.045 36.095
861.950 16.830 -63.758
911.330 15.756 -168.827
963.540 14.872 80.036
1018.740 14.163 -38.247
1077.110 13.548 -164.633
1138.810 12.909 60.420
1204.050 12.148 -83.185
1273.030 11.228 124.668
1345.960 10.151 -36.044
1423.070 8.925 154.527
1504.590 7.582 -23.601
1590.790 6.217 149.283
1681.920 4.953 -47.677
1778.280 3.826 104.034
1880.150 2.765 -116.933
1987.870 1.642 8.475
2101.750 0.300 120.168
2222.150 -1.268 -140.990
2349.460 -2.746 -55.035
2484.060 -3.994 16.250
2626.360 -4.980 68.641
2776.820 -6.244 101.867
2935.900 -7.785 117.912
3104.100 -9.064 116.366
3281.930 -10.048 91.749
3469.940 -11.371 43.222
3668.730 -12.973 -27.123
3878.910 -14.399 -120.744
4101.130 -15.580 117.653
4336.070 -17.276 -33.854
4584.480 -19.269 147.944
4847.120 -21.223 -61.113
5124.810 -23.521 57.866
5418.400 -25.714 143.754
5728.810 -28.234 -168.625
6057.010 -30.861 -155.723
6404.000 -33.685 175.082
6770.880 -36.896 102.393
7158.770 -40.644 -15.967
7568.890 -45.549 178.354
8002.500 -51.765 -36.780
8460.950 -73.704 72.309
8945.670 -58.858 -104.972
9458.160 -53.768 -127.879
10000.000 -52.819 139.501
