# Freq(Hz) SPL(dB) Phase (degrees)
10.000 51.137 -76.323
10.570 52.024 -80.542
11.180 52.916 -85.040
11.820 53.794 -89.741
12.500 54.668 -94.717
13.210 55.524 -99.892
13.970 56.382 -105.413
14.770 57.229 -111.206
15.620 58.070 -117.344
16.510 58.894 -123.759
17.460 59.716 -130.598
18.460 60.525 -137.799
19.510 61.316 -145.370
20.630 62.102 -153.473
21.810 62.870 -162.054
23.060 63.620 -171.210
24.380 64.345 179.028
25.780 65.040 168.556
27.260 65.691 157.344
28.820 66.280 145.372
30.470 66.791 132.569
32.220 67.200 118.900
34.060 67.477 104.548
36.010 67.601 89.531
38.080 67.554 74.011
40.260 67.333 58.341
42.560 66.947 42.707
45.000 66.415 27.198
47.580 65.763 11.968
50.310 65.018 -2.958
53.190 64.206 -17.555
56.230 63.346 -31.890
59.460 62.448 -46.126
62.860 61.531 -60.212
66.460 60.596 -74.312
70.270 59.650 -88.497
74.300 58.697 -102.833
78.550 57.741 -117.348
83.050 56.781 -132.165
87.810 55.819 -147.332
92.840 54.855 -162.896
98.160 53.890 -178.930
103.780 52.924 164.528
109.730 51.956 147.381
116.020 50.988 129.596
122.660 50.020 111.137
129.690 49.050 91.891
137.120 48.079 71.826
144.970 47.107 50.883
153.280 46.132 28.954
162.060 45.157 6.009
171.340 44.179 -18.034
181.160 43.197 -43.280
191.540 42.213 -69.785
202.510 41.224 -97.625
214.110 40.230 -126.906
226.380 39.228 -157.727
239.350 38.218 169.837
253.060 37.199 135.688
267.560 36.168 99.708
282.890 35.124 61.804
299.090 34.065 21.888
316.230 32.989 -20.201
334.340 31.896 -64.527
353.500 30.784 -111.276
373.750 29.654 -160.541
395.160 28.502 147.505
417.800 27.326 92.684
441.730 26.117 34.844
467.040 24.863 -26.227
493.800 23.544 -90.639
522.090 22.138 -158.439
552.000 20.630 130.441
583.620 19.024 56.207
617.050 17.371 -20.917
652.400 15.770 -100.897
689.780 14.352 175.868
729.290 13.227 88.444
771.080 12.422 -4.546
815.250 11.876 -104.261
861.950 11.480 148.426
911.330 11.119 33.012
963.540 10.691 -90.767
1018.740 10.098 136.938
1077.110 9.230 -3.799
1138.810 8.009 -152.240
1204.050 6.488 52.472
1273.030 4.876 -109.079
1345.960 3.441 82.269
1423.070 2.333 -95.439
1504.590 1.493 75.688
1590.790 0.804 -125.513
1681.920 0.174 19.721
1778.280 -0.619 150.337
1880.150 -1.830 -93.322
1987.870 -3.465 9.690
2101.750 -5.491 99.825
2222.150 -7.821 177.126
2349.460 -10.298 -117.175
2484.060 -12.177 -63.633
2626.360 -13.185 -29.459
2776.820 -13.960 -17.363
2935.900 -14.617 -27.914
3104.100 -15.423 -63.422
3281.930 -16.646 -123.552
3469.940 -18.467 152.443
3668.730 -20.923 45.062
3878.910 -23.603 -85.239
4101.130 -25.758 117.545
4336.070 -28.523 -68.446
4584.480 -30.931 81.728
4847.120 -31.579 -165.451
5124.810 -32.805 -101.375
5418.400 -36.316 -79.606
5728.810 -41.891 -76.909
6057.010 -44.810 -104.614
6404.000 -47.283 173.227
6770.880 -50.814 36.600
7158.770 -58.945 174.386
7568.890 -65.227 -40.606
8002.500 -69.507 83.281
8460.950 -73.012 -169.147
8945.670 -75.447 147.412
9458.160 -69.970 72.589
10000.000 -75.654 -108.514
