# Freq(Hz) SPL(dB) Phase (degrees)
10.000 51.240 -76.042
10.570 52.127 -80.245
11.180 53.019 -84.726
11.820 53.896 -89.409
12.500 54.771 -94.365
13.210 55.627 -99.521
13.970 56.485 -105.020
14.770 57.331 -110.791
15.620 58.172 -116.905
16.510 58.997 -123.294
17.460 59.819 -130.107
18.460 60.627 -137.279
19.510 61.418 -144.822
20.630 62.204 -152.893
21.810 62.971 -161.440
23.060 63.721 -170.562
24.380 64.446 179.714
25.780 65.141 169.282
27.260 65.792 158.111
28.820 66.381 146.183
30.470 66.892 133.427
32.220 67.300 119.807
34.060 67.577 105.508
36.010 67.700 90.545
38.080 67.653 75.084
40.260 67.432 59.475
42.560 67.045 43.907
45.000 66.512 28.467
47.580 65.860 13.310
50.310 65.114 -1.538
53.190 64.301 -16.054
56.230 63.441 -30.301
59.460 62.542 -44.445
62.860 61.623 -58.434
66.460 60.687 -72.431
70.270 59.740 -86.507
74.300 58.785 -100.727
78.550 57.828 -115.119
83.050 56.866 -129.806
87.810 55.901 -144.835
92.840 54.935 -160.253
98.160 53.967 -176.131
103.780 52.998 167.491
109.730 52.027 150.520
116.020 51.055 132.920
122.660 50.083 114.659
129.690 49.108 95.623
137.120 48.132 75.781
144.970 47.154 55.076
153.280 46.173 33.401
162.060 45.189 10.725
171.340 44.203 -13.029
181.160 43.211 -37.968
191.540 42.215 -64.143
202.510 41.213 -91.630
214.110 40.203 -120.529
226.380 39.183 -150.938
239.350 38.151 177.075
253.060 37.106 143.420
267.560 36.044 107.989
282.890 34.962 70.705
299.090 33.860 31.498
316.230 32.734 -9.763
334.340 31.585 -53.105
353.500 30.413 -98.667
373.750 29.223 -146.485
395.160 28.023 163.333
417.800 26.824 110.673
441.730 25.643 55.418
467.040 24.500 -2.663
493.800 23.415 -63.817
522.090 22.402 -128.384
552.000 21.460 163.245
583.620 20.576 90.712
617.050 19.731 13.728
652.400 18.913 -67.951
689.780 18.119 -154.564
729.290 17.351 113.612
771.080 16.606 16.124
815.250 15.867 -87.373
861.950 15.105 162.730
911.330 14.288 46.137
963.540 13.396 -77.358
1018.740 12.420 152.015
1077.110 11.340 14.010
1138.810 10.152 -131.418
1204.050 8.902 75.519
1273.030 7.653 -85.537
1345.960 6.457 104.591
1423.070 5.314 -74.982
1504.590 4.199 94.988
1590.790 3.115 -106.226
1681.920 2.023 40.187
1778.280 0.749 173.383
1880.150 -0.845 -66.144
1987.870 -2.744 41.996
2101.750 -4.783 139.191
2222.150 -6.488 -135.619
2349.460 -7.637 -66.527
2484.060 -8.503 -16.879
2626.360 -9.521 12.130
2776.820 -10.925 21.873
2935.900 -12.480 13.389
3104.100 -13.803 -15.348
3281.930 -15.021 -68.529
3469.940 -16.612 -147.624
3668.730 -18.839 110.356
3878.910 -21.160 -12.059
4101.130 -22.168 -160.481
4336.070 -22.995 12.096
4584.480 -25.024 150.608
4847.120 -27.514 -98.456
5124.810 -29.858 -23.115
5418.400 -32.983 16.926
5728.810 -36.087 29.176
6057.010 -37.529 -11.797
6404.000 -40.830 -99.278
6770.880 -44.766 132.428
7158.770 -49.247 -33.260
7568.890 -52.784 100.436
8002.500 -60.479 -174.611
8460.950 -69.197 -101.735
8945.670 -69.008 -71.114
9458.160 -63.063 -149.050
10000.000 -61.500 24.869
