# Freq(Hz) SPL(dB) Phase (degrees)
10.000 51.309 -75.853
10.570 52.197 -80.045
11.180 53.088 -84.514
11.820 53.966 -89.185
12.500 54.840 -94.129
13.210 55.696 -99.271
13.970 56.554 -104.756
14.770 57.400 -110.511
15.620 58.241 -116.609
16.510 59.065 -122.982
17.460 59.887 -129.777
18.460 60.695 -136.930
19.510 61.486 -144.452
20.630 62.272 -152.502
21.810 63.039 -161.027
23.060 63.789 -170.125
24.380 64.513 -179.824
25.780 65.208 169.771
27.260 65.858 158.628
28.820 66.447 146.730
30.470 66.957 134.005
32.220 67.365 120.419
34.060 67.641 106.155
36.010 67.764 91.229
38.080 67.716 75.808
40.260 67.493 60.241
42.560 67.106 44.718
45.000 66.572 29.324
47.580 65.919 14.218
50.310 65.171 -0.577
53.190 64.357 -15.036
56.230 63.495 -29.225
59.460 62.594 -43.305
62.860 61.673 -57.227
66.460 60.735 -71.152
70.270 59.785 -85.152
74.300 58.828 -99.292
78.550 57.867 -113.597
83.050 56.902 -128.192
87.810 55.933 -143.124
92.840 54.962 -158.437
98.160 53.990 -174.203
103.780 53.016 169.538
109.730 52.039 152.695
116.020 51.060 135.233
122.660 50.080 117.120
129.690 49.097 98.242
137.120 48.112 78.571
144.970 47.125 58.052
153.280 46.133 36.576
162.060 45.138 14.119
171.340 44.139 -9.400
181.160 43.134 -34.080
191.540 42.124 -59.973
202.510 41.107 -87.153
214.110 40.082 -115.715
226.380 39.047 -145.755
239.350 38.001 -177.340
253.060 36.943 149.443
267.560 35.871 114.484
282.890 34.783 77.705
299.090 33.679 39.027
316.230 32.556 -1.693
334.340 31.418 -44.500
353.500 30.262 -89.560
373.750 29.092 -136.942
395.160 27.909 173.211
417.800 26.713 120.758
441.730 25.506 65.588
467.040 24.288 7.538
493.800 23.060 -53.468
522.090 21.834 -117.485
552.000 20.638 175.421
583.620 19.523 105.082
617.050 18.554 31.056
652.400 17.768 -47.408
689.780 17.152 -131.155
729.290 16.648 139.148
771.080 16.181 42.976
815.250 15.682 -59.870
861.950 15.094 -169.576
911.330 14.375 73.720
963.540 13.487 -50.090
1018.740 12.392 178.889
1077.110 11.034 40.770
1138.810 9.413 -103.823
1204.050 7.649 105.526
1273.030 5.975 -51.444
1345.960 4.551 143.612
1423.070 3.349 -31.211
1504.590 2.191 143.094
1590.790 0.993 -53.517
1681.920 -0.230 98.846
1778.280 -1.431 -120.144
1880.150 -2.464 9.111
1987.870 -3.114 123.884
2101.750 -3.719 -138.531
2222.150 -4.632 -58.352
2349.460 -6.013 5.270
2484.060 -7.902 53.284
2626.360 -10.104 87.461
2776.820 -11.910 106.998
2935.900 -13.146 105.510
3104.100 -14.450 80.548
3281.930 -16.068 33.546
3469.940 -17.384 -36.082
3668.730 -18.879 -132.982
3878.910 -20.882 101.267
4101.130 -23.965 -46.364
4336.070 -25.819 142.668
4584.480 -27.490 -67.352
4847.120 -30.274 50.843
5124.810 -32.761 137.768
5418.400 -36.601 -171.300
5728.810 -39.184 -156.220
6057.010 -42.055 173.277
6404.000 -47.333 100.910
6770.880 -51.003 7.106
7158.770 -56.258 -118.349
7568.890 -60.600 -13.840
8002.500 -66.127 112.145
8460.950 -70.610 -126.593
8945.670 -65.102 -98.408
9458.160 -68.037 174.657
10000.000 -64.230 34.869
