# Freq(Hz) SPL(dB) Phase (degrees)
10.000 51.540 -75.239
10.570 52.427 -79.396
11.180 53.319 -83.828
11.820 54.196 -88.459
12.500 55.070 -93.361
13.210 55.926 -98.459
13.970 56.784 -103.898
14.770 57.630 -109.604
15.620 58.471 -115.650
16.510 59.295 -121.967
17.460 60.117 -128.704
18.460 60.924 -135.795
19.510 61.715 -143.253
20.630 62.500 -151.233
21.810 63.267 -159.686
23.060 64.017 -168.706
24.380 64.741 -178.324
25.780 65.434 171.357
27.260 66.084 160.306
28.820 66.673 148.505
30.470 67.182 135.882
32.220 67.589 122.405
34.060 67.864 108.254
36.010 67.986 93.450
38.080 67.937 78.158
40.260 67.713 62.727
42.560 67.325 47.347
45.000 66.789 32.107
47.580 66.134 17.162
50.310 65.385 2.539
53.190 64.568 -11.739
56.230 63.704 -25.734
59.460 62.800 -39.610
62.860 61.877 -53.315
66.460 60.936 -67.010
70.270 59.982 -80.765
74.300 59.021 -94.643
78.550 58.056 -108.673
83.050 57.086 -122.973
87.810 56.112 -137.590
92.840 55.136 -152.569
98.160 54.157 -167.979
103.780 53.176 176.143
109.730 52.191 159.706
116.020 51.204 142.679
122.660 50.216 125.030
129.690 49.223 106.652
137.120 48.228 87.517
144.970 47.230 67.572
153.280 46.226 46.716
162.060 45.219 24.925
171.340 44.208 2.126
181.160 43.191 -21.776
191.540 42.169 -46.827
202.510 41.140 -73.093
214.110 40.105 -100.664
226.380 39.062 -129.626
239.350 38.012 -160.039
253.060 36.955 168.019
267.560 35.890 134.448
282.890 34.820 99.174
299.090 33.746 62.125
316.230 32.671 23.163
334.340 31.602 -17.766
353.500 30.544 -60.834
373.750 29.505 -106.136
395.160 28.495 -153.852
417.800 27.521 155.815
441.730 26.591 102.661
467.040 25.708 46.395
493.800 24.870 -13.234
522.090 24.072 -76.493
552.000 23.305 -143.652
583.620 22.560 145.036
617.050 21.826 69.294
652.400 21.094 -11.187
689.780 20.345 -96.719
729.290 19.554 172.428
771.080 18.687 75.921
815.250 17.705 -26.354
861.950 16.568 -134.489
911.330 15.251 111.560
963.540 13.749 -8.032
1018.740 12.095 -133.044
1077.110 10.377 96.814
1138.810 8.801 -38.534
1204.050 7.565 179.370
1273.030 6.697 28.269
1345.960 6.008 -133.407
1423.070 5.305 53.817
1504.590 4.474 -129.758
1590.790 3.555 36.043
1681.920 2.643 -169.636
1778.280 1.664 -28.298
1880.150 0.438 99.664
1987.870 -1.162 -146.017
2101.750 -3.253 -43.542
2222.150 -5.545 48.929
2349.460 -7.213 130.358
2484.060 -7.995 -167.086
2626.360 -8.879 -127.889
2776.820 -10.619 -108.480
2935.900 -12.843 -103.938
3104.100 -14.508 -117.180
3281.930 -16.156 -156.519
3469.940 -18.884 141.821
3668.730 -21.448 66.036
3878.910 -22.820 -37.960
4101.130 -24.880 -171.753
4336.070 -26.487 28.153
4584.480 -28.764 -168.103
4847.120 -31.770 -22.359
5124.810 -32.148 80.062
5418.400 -35.910 143.960
5728.810 -38.400 -178.223
6057.010 -40.477 171.575
6404.000 -43.727 114.342
6770.880 -49.894 19.218
7158.770 -57.573 -135.696
7568.890 -59.253 121.971
8002.500 -60.850 -144.582
8460.950 -64.728 6.623
8945.670 -65.003 7.578
9458.160 -61.690 -23.468
10000.000 -61.983 -145.294
