# Freq(Hz) SPL(dB) Phase (degrees)
10.000 51.721 -74.768
10.570 52.609 -78.899
11.180 53.500 -83.302
11.820 54.377 -87.903
12.500 55.251 -92.773
13.210 56.107 -97.838
13.970 56.965 -103.240
14.770 57.811 -108.909
15.620 58.652 -114.914
16.510 59.475 -121.190
17.460 60.297 -127.882
18.460 61.105 -134.926
19.510 61.895 -142.334
20.630 62.680 -150.262
21.810 63.447 -158.658
23.060 64.196 -167.620
24.380 64.920 -177.175
25.780 65.614 172.572
27.260 66.263 161.592
28.820 66.851 149.864
30.470 67.360 137.320
32.220 67.767 123.926
34.060 68.041 109.863
36.010 68.163 95.152
38.080 68.114 79.959
40.260 67.889 64.632
42.560 67.500 49.363
45.000 66.964 34.240
47.580 66.308 19.419
50.310 65.558 4.928
53.190 64.740 -9.209
56.230 63.875 -23.057
59.460 62.970 -36.775
62.860 62.046 -50.313
66.460 61.103 -63.830
70.270 60.148 -77.396
74.300 59.185 -91.074
78.550 58.219 -104.890
83.050 57.247 -118.962
87.810 56.271 -133.337
92.840 55.292 -148.058
98.160 54.311 -163.192
103.780 53.328 -178.775
109.730 52.342 165.103
116.020 51.352 148.413
122.660 50.362 131.125
129.690 49.368 113.133
137.120 48.371 94.413
144.970 47.372 74.912
153.280 46.369 54.535
162.060 45.363 33.258
171.340 44.354 11.011
181.160 43.342 -12.297
191.540 42.326 -36.709
202.510 41.309 -62.290
214.110 40.289 -89.127
226.380 39.267 -117.304
239.350 38.245 -146.881
253.060 37.225 -177.941
267.560 36.207 149.414
282.890 35.197 115.099
299.090 34.198 79.028
316.230 33.214 41.043
334.340 32.253 1.064
353.500 31.320 -41.115
373.750 30.423 -85.627
395.160 29.567 -132.694
417.800 28.754 177.440
441.730 27.983 124.537
467.040 27.245 68.287
493.800 26.525 8.438
522.090 25.800 -55.237
552.000 25.046 -122.928
583.620 24.243 165.243
617.050 23.378 89.160
652.400 22.447 8.673
689.780 21.446 -76.416
729.290 20.363 -166.299
771.080 19.176 98.762
815.250 17.855 -1.239
861.950 16.383 -106.205
911.330 14.783 144.151
963.540 13.158 30.101
1018.740 11.690 -88.662
1077.110 10.558 146.487
1138.810 9.767 13.421
1204.050 9.103 -129.351
1273.030 8.377 77.986
1345.960 7.509 -84.290
1423.070 6.483 103.817
1504.590 5.312 -77.694
1590.790 4.072 90.816
1681.920 2.779 -111.874
1778.280 1.257 33.473
1880.150 -0.594 167.915
1987.870 -2.610 -67.683
2101.750 -4.256 46.219
2222.150 -5.402 144.632
2349.460 -6.651 -135.305
2484.060 -8.407 -70.394
2626.360 -10.027 -18.075
2776.820 -10.738 14.889
2935.900 -11.730 21.382
3104.100 -14.116 8.627
3281.930 -16.575 -13.949
3469.940 -17.193 -60.332
3668.730 -18.262 -140.588
3878.910 -20.460 117.440
4101.130 -22.294 -7.413
4336.070 -24.162 -164.102
4584.480 -26.921 12.020
4847.120 -29.365 160.711
5124.810 -31.547 -83.323
5418.400 -34.387 -5.457
5728.810 -36.814 47.253
6057.010 -38.983 49.803
6404.000 -41.786 16.300
6770.880 -45.662 -67.233
7158.770 -49.976 170.642
7568.890 -53.840 11.738
8002.500 -61.564 153.847
8460.950 -64.741 -61.353
8945.670 -61.889 -10.734
9458.160 -61.616 -22.392
10000.000 -61.535 -128.490
