# Freq(Hz) SPL(dB) Phase (degrees)
10.000 51.008 -76.681
10.570 51.896 -80.920
11.180 52.788 -85.440
11.820 53.665 -90.164
12.500 54.540 -95.164
13.210 55.396 -100.365
13.970 56.255 -105.913
14.770 57.101 -111.734
15.620 57.943 -117.903
16.510 58.767 -124.349
17.460 59.590 -131.223
18.460 60.398 -138.459
19.510 61.190 -146.068
20.630 61.976 -154.211
21.810 62.744 -162.834
23.060 63.495 -172.035
24.380 64.220 178.156
25.780 64.916 167.634
27.260 65.567 156.368
28.820 66.158 144.341
30.470 66.670 131.478
32.220 67.079 117.747
34.060 67.357 103.329
36.010 67.482 88.241
38.080 67.437 72.647
40.260 67.217 56.898
42.560 66.833 41.182
45.000 66.302 25.584
47.580 65.652 10.261
50.310 64.909 -4.764
53.190 64.100 -19.465
56.230 63.243 -33.910
59.460 62.348 -48.264
62.860 61.434 -62.473
66.460 60.503 -76.705
70.270 59.562 -91.029
74.300 58.613 -105.513
78.550 57.663 -120.184
83.050 56.709 -135.166
87.810 55.753 -150.510
92.840 54.797 -166.261
98.160 53.840 177.507
103.780 52.883 160.754
109.730 51.926 143.383
116.020 50.969 125.359
122.660 50.014 106.647
129.690 49.058 87.130
137.120 48.103 66.776
144.970 47.149 45.526
153.280 46.195 23.268
162.060 45.242 -0.028
171.340 44.289 -24.447
181.160 43.335 -50.098
191.540 42.381 -77.036
202.510 41.426 -105.344
214.110 40.469 -135.128
226.380 39.510 -166.493
239.350 38.546 160.482
253.060 37.577 125.697
267.560 36.602 89.026
282.890 35.618 50.375
299.090 34.624 9.649
316.230 33.620 -33.315
334.340 32.604 -78.583
353.500 31.577 -126.343
373.750 30.540 -176.688
395.160 29.493 130.209
417.800 28.437 74.166
441.730 27.369 15.018
467.040 26.286 -47.477
493.800 25.180 -113.498
522.090 24.037 176.782
552.000 22.847 103.228
583.620 21.602 25.767
617.050 20.309 -55.665
652.400 18.993 -141.189
689.780 17.684 128.992
729.290 16.418 34.597
771.080 15.226 -64.855
815.250 14.134 -169.798
861.950 13.160 79.131
911.330 12.310 -38.802
963.540 11.558 -164.399
1018.740 10.843 61.587
1077.110 10.063 -81.475
1138.810 9.097 126.332
1204.050 7.906 -34.692
1273.030 6.516 155.594
1345.960 4.997 -23.212
1423.070 3.338 148.198
1504.590 1.513 -50.541
1590.790 -0.493 100.404
1681.920 -2.658 -118.843
1778.280 -4.839 11.931
1880.150 -6.711 131.581
1987.870 -8.099 -122.435
2101.750 -9.122 -33.415
2222.150 -9.967 36.654
2349.460 -11.025 85.914
2484.060 -12.586 114.475
2626.360 -14.860 122.585
2776.820 -18.040 110.522
2935.900 -22.223 79.559
3104.100 -27.616 32.483
3281.930 -32.429 -20.715
3469.940 -34.255 -103.590
3668.730 -34.924 118.447
3878.910 -34.308 -63.109
4101.130 -34.942 87.547
4336.070 -34.886 -140.663
4584.480 -35.577 -29.770
4847.120 -36.732 60.760
5124.810 -36.720 115.061
5418.400 -37.543 117.893
5728.810 -38.909 90.258
6057.010 -41.758 19.603
6404.000 -45.412 -80.120
6770.880 -47.735 124.063
7158.770 -51.233 -101.507
7568.890 -57.378 6.967
8002.500 -66.987 37.366
8460.950 -76.529 139.158
8945.670 -72.044 104.769
9458.160 -69.145 -32.192
10000.000 -63.095 63.679
