# Freq(Hz) SPL(dB) Phase (degrees)
10.000 53.356 -70.953
10.570 54.244 -74.866
11.180 55.135 -79.036
11.820 56.013 -83.393
12.500 56.888 -88.003
13.210 57.744 -92.797
13.970 58.602 -97.909
14.770 59.449 -103.272
15.620 60.290 -108.953
16.510 61.114 -114.888
17.460 61.937 -121.217
18.460 62.745 -127.879
19.510 63.537 -134.885
20.630 64.323 -142.384
21.810 65.091 -150.329
23.060 65.842 -158.811
24.380 66.567 -167.861
25.780 67.262 -177.577
27.260 67.914 172.010
28.820 68.504 160.882
30.470 69.016 148.971
32.220 69.425 136.250
34.060 69.703 122.895
36.010 69.829 108.935
38.080 69.783 94.540
40.260 69.564 80.055
42.560 69.180 65.675
45.000 68.650 51.495
47.580 68.001 37.675
50.310 67.259 24.243
53.190 66.452 11.224
56.230 65.597 -1.440
59.460 64.705 -13.898
62.860 63.794 -26.108
66.460 62.868 -38.218
70.270 61.933 -50.291
74.300 60.992 -62.388
78.550 60.051 -74.535
83.050 59.109 -86.840
87.810 58.168 -99.344
92.840 57.231 -112.088
98.160 56.297 -125.134
103.780 55.369 -138.518
109.730 54.446 -152.320
116.020 53.530 -166.571
122.660 52.625 178.694
129.690 51.729 163.378
137.120 50.845 147.445
144.970 49.975 130.839
153.280 49.118 113.459
162.060 48.276 95.264
171.340 47.450 76.171
181.160 46.638 56.073
191.540 45.842 34.905
202.510 45.058 12.578
214.110 44.285 -11.012
226.380 43.519 -35.969
239.350 42.754 -62.371
253.060 41.986 -90.306
267.560 41.207 -119.877
282.890 40.412 -151.150
299.090 39.593 175.822
316.230 38.744 140.937
334.340 37.863 104.193
353.500 36.946 65.495
373.750 35.997 24.836
395.160 35.021 -17.852
417.800 34.030 -62.654
441.730 33.037 -109.665
467.040 32.059 -159.085
493.800 31.109 148.871
522.090 30.193 93.919
552.000 29.304 35.746
583.620 28.423 -25.909
617.050 27.525 -91.222
652.400 26.595 -160.289
689.780 25.631 126.832
729.290 24.650 50.063
771.080 23.672 -30.872
815.250 22.715 -116.274
861.950 21.771 153.420
911.330 20.811 57.907
963.540 19.819 -42.845
1018.740 18.841 -148.847
1077.110 17.954 99.355
1138.810 17.159 -19.196
1204.050 16.376 -144.973
1273.030 15.599 81.899
1345.960 14.864 -59.137
1423.070 14.133 151.183
1504.590 13.350 -7.542
1590.790 12.479 -175.622
1681.920 11.495 6.855
1778.280 10.444 179.773
1880.150 9.412 -17.375
1987.870 8.424 134.230
2101.750 7.442 -86.396
2222.150 6.401 40.582
2349.460 5.428 154.467
2484.060 4.467 -106.526
2626.360 3.381 -22.584
2776.820 2.256 45.934
2935.900 1.109 97.741
3104.100 -0.124 131.568
3281.930 -1.552 147.943
3469.940 -2.756 145.690
3668.730 -3.868 121.275
3878.910 -5.167 73.464
4101.130 -6.809 3.684
4336.070 -8.468 -89.389
4584.480 -9.990 152.529
4847.120 -11.389 6.298
5124.810 -12.982 -169.750
5418.400 -14.607 -17.059
5728.810 -16.735 106.283
6057.010 -18.292 -163.766
6404.000 -20.055 -113.734
6770.880 -22.288 -100.133
7158.770 -24.178 -125.852
7568.890 -26.314 164.148
8002.500 -28.723 49.471
8460.950 -31.318 -112.802
8945.670 -34.132 35.037
9458.160 -37.324 129.039
10000.000 -40.982 169.479
