# Freq(Hz) SPL(dB) Phase (degrees)
10.000 51.182 -76.198
10.570 52.070 -80.410
11.180 52.962 -84.900
11.820 53.839 -89.593
12.500 54.714 -94.560
13.210 55.570 -99.727
13.970 56.428 -105.239
14.770 57.274 -111.021
15.620 58.116 -117.149
16.510 58.940 -123.552
17.460 59.762 -130.380
18.460 60.570 -137.568
19.510 61.362 -145.126
20.630 62.148 -153.215
21.810 62.915 -161.781
23.060 63.665 -170.922
24.380 64.390 179.333
25.780 65.085 168.879
27.260 65.736 157.685
28.820 66.326 145.733
30.470 66.837 132.950
32.220 67.245 119.303
34.060 67.522 104.975
36.010 67.646 89.981
38.080 67.600 74.488
40.260 67.378 58.845
42.560 66.993 43.240
45.000 66.460 27.761
47.580 65.808 12.564
50.310 65.063 -2.328
53.190 64.251 -16.889
56.230 63.391 -31.185
59.460 62.493 -45.381
62.860 61.575 -59.424
66.460 60.641 -73.478
70.270 59.695 -87.616
74.300 58.741 -101.901
78.550 57.786 -116.361
83.050 56.826 -131.121
87.810 55.863 -146.228
92.840 54.899 -161.728
98.160 53.933 -177.694
103.780 52.968 165.835
109.730 52.000 148.763
116.020 51.031 131.058
122.660 50.063 112.685
129.690 49.092 93.528
137.120 48.120 73.557
144.970 47.148 52.715
153.280 46.172 30.892
162.060 45.195 8.059
171.340 44.216 -15.866
181.160 43.233 -40.987
191.540 42.246 -67.359
202.510 41.254 -95.059
214.110 40.255 -124.190
226.380 39.248 -154.850
239.350 38.230 172.887
253.060 37.200 138.930
267.560 36.155 103.165
282.890 35.092 65.508
299.090 34.010 25.885
316.230 32.905 -15.846
334.340 31.777 -59.723
353.500 30.625 -105.896
373.750 29.453 -154.415
395.160 28.263 154.600
417.800 27.063 101.028
441.730 25.862 44.761
467.040 24.672 -14.404
493.800 23.507 -76.649
522.090 22.379 -142.220
552.000 21.296 148.590
583.620 20.258 75.491
617.050 19.263 -1.805
652.400 18.314 -83.587
689.780 17.415 -170.160
729.290 16.574 98.133
771.080 15.788 0.777
815.250 15.043 -102.641
861.950 14.304 147.415
911.330 13.534 30.584
963.540 12.698 -93.380
1018.740 11.773 135.311
1077.110 10.731 -3.537
1138.810 9.559 -149.871
1204.050 8.317 56.195
1273.030 7.077 -105.683
1345.960 5.897 83.638
1423.070 4.776 -96.673
1504.590 3.706 72.704
1590.790 2.726 -128.928
1681.920 1.857 17.041
1778.280 0.955 149.121
1880.150 -0.177 -92.918
1987.870 -1.607 10.768
2101.750 -3.419 101.255
2222.150 -5.423 178.820
2349.460 -7.377 -117.341
2484.060 -9.098 -68.948
2626.360 -10.573 -38.809
2776.820 -12.060 -28.367
2935.900 -13.605 -37.001
3104.100 -14.818 -65.410
3281.930 -15.512 -118.744
3469.940 -16.265 159.282
3668.730 -17.641 49.189
3878.910 -19.956 -87.148
4101.130 -22.943 115.608
4336.070 -24.997 -64.842
4584.480 -26.097 78.931
4847.120 -27.531 -175.456
5124.810 -29.469 -107.119
5418.400 -31.823 -75.685
5728.810 -35.711 -84.148
6057.010 -39.391 -122.641
6404.000 -41.922 153.340
6770.880 -44.673 15.930
7158.770 -49.202 -149.307
7568.890 -55.038 -18.192
8002.500 -63.292 54.959
8460.950 -70.153 119.813
8945.670 -68.010 119.678
9458.160 -63.928 43.347
10000.000 -63.942 -137.369
