# Freq(Hz) SPL(dB) Phase (degrees)
10.000 51.814 -74.532
10.570 52.701 -78.648
11.180 53.593 -83.037
11.820 54.470 -87.623
12.500 55.344 -92.477
13.210 56.200 -97.525
13.970 57.058 -102.910
14.770 57.904 -108.559
15.620 58.745 -114.545
16.510 59.568 -120.799
17.460 60.390 -127.468
18.460 61.197 -134.489
19.510 61.988 -141.872
20.630 62.773 -149.773
21.810 63.540 -158.142
23.060 64.289 -167.074
24.380 65.013 -176.597
25.780 65.706 173.183
27.260 66.356 162.237
28.820 66.944 150.547
30.470 67.453 138.042
32.220 67.860 124.689
34.060 68.134 110.670
36.010 68.256 96.006
38.080 68.207 80.862
40.260 67.982 65.587
42.560 67.593 50.373
45.000 67.057 35.308
47.580 66.401 20.549
50.310 65.651 6.123
53.190 64.833 -7.946
56.230 63.968 -21.721
59.460 63.063 -35.361
62.860 62.139 -48.817
66.460 61.196 -62.248
70.270 60.241 -75.722
74.300 59.278 -89.303
78.550 58.312 -103.016
83.050 57.340 -116.980
87.810 56.364 -131.240
92.840 55.386 -145.838
98.160 54.405 -160.843
103.780 53.423 -176.289
109.730 52.436 167.734
116.020 51.448 151.198
122.660 50.458 134.073
129.690 49.464 116.254
137.120 48.468 97.716
144.970 47.470 78.410
153.280 46.467 58.238
162.060 45.462 37.179
171.340 44.454 15.164
181.160 43.443 -7.898
191.540 42.428 -32.048
202.510 41.411 -57.349
214.110 40.391 -83.883
226.380 39.369 -111.732
239.350 38.346 -140.948
253.060 37.324 -171.608
267.560 36.307 156.196
282.890 35.298 122.390
299.090 34.306 86.897
316.230 33.338 49.564
334.340 32.406 10.304
353.500 31.522 -31.107
373.750 30.697 -74.848
395.160 29.940 -121.203
417.800 29.250 -170.494
441.730 28.618 136.964
467.040 28.021 80.803
493.800 27.425 20.756
522.090 26.787 -43.370
552.000 26.063 -111.658
583.620 25.220 175.934
617.050 24.244 99.503
652.400 23.143 19.115
689.780 21.942 -65.250
729.290 20.669 -153.690
771.080 19.347 113.531
815.250 17.996 16.279
861.950 16.646 -85.643
911.330 15.352 167.523
963.540 14.195 55.274
1018.740 13.229 -63.323
1077.110 12.447 170.595
1138.810 11.772 36.113
1204.050 11.097 -107.385
1273.030 10.333 99.867
1345.960 9.419 -62.227
1423.070 8.310 126.333
1504.590 7.013 -54.173
1590.790 5.619 116.178
1681.920 4.252 -83.233
1778.280 2.967 66.384
1880.150 1.747 -156.136
1987.870 0.543 -31.716
2101.750 -0.691 78.741
2222.150 -2.092 174.611
2349.460 -3.666 -103.355
2484.060 -5.319 -34.968
2626.360 -6.443 17.282
2776.820 -7.420 48.939
2935.900 -8.718 60.114
3104.100 -10.375 53.092
3281.930 -11.819 27.283
3469.940 -12.999 -21.997
3668.730 -14.273 -96.459
3878.910 -15.801 163.860
4101.130 -17.426 38.785
4336.070 -19.026 -114.588
4584.480 -20.874 61.557
4847.120 -23.100 -152.163
5124.810 -25.326 -37.928
5418.400 -27.940 42.545
5728.810 -30.463 88.281
6057.010 -32.891 94.174
6404.000 -36.013 58.100
6770.880 -39.066 -19.796
7158.770 -43.127 -145.996
7568.890 -48.021 41.362
8002.500 -55.312 -174.090
8460.950 -73.071 -47.046
8945.670 -60.483 93.526
9458.160 -56.195 59.205
10000.000 -55.110 -36.042
