# Freq(Hz) SPL(dB) Phase (degrees)
10.000 53.296 -71.080
10.570 54.184 -75.000
11.180 55.076 -79.178
11.820 55.953 -83.543
12.500 56.828 -88.162
13.210 57.684 -92.965
13.970 58.542 -98.087
14.770 59.388 -103.459
15.620 60.230 -109.151
16.510 61.054 -115.098
17.460 61.877 -121.438
18.460 62.685 -128.113
19.510 63.477 -135.132
20.630 64.263 -142.646
21.810 65.031 -150.606
23.060 65.781 -159.104
24.380 66.506 -168.170
25.780 67.202 -177.904
27.260 67.853 171.664
28.820 68.443 160.516
30.470 68.955 148.584
32.220 69.364 135.841
34.060 69.641 122.463
36.010 69.766 108.478
38.080 69.721 94.057
40.260 69.501 79.544
42.560 69.117 65.134
45.000 68.587 50.924
47.580 67.937 37.071
50.310 67.195 23.605
53.190 66.386 10.550
56.230 65.530 -2.153
59.460 64.637 -14.652
62.860 63.726 -26.904
66.460 62.799 -39.059
70.270 61.862 -51.179
74.300 60.920 -63.326
78.550 59.978 -75.525
83.050 59.034 -87.884
87.810 58.091 -100.445
92.840 57.151 -113.249
98.160 56.214 -126.358
103.780 55.283 -139.806
109.730 54.357 -153.675
116.020 53.438 -167.995
122.660 52.530 177.200
129.690 51.629 161.812
137.120 50.741 145.806
144.970 49.866 129.127
153.280 49.003 111.673
162.060 48.157 93.405
171.340 47.326 74.238
181.160 46.510 54.067
191.540 45.710 32.824
202.510 44.923 10.423
214.110 44.148 -13.246
226.380 43.381 -38.285
239.350 42.617 -64.776
253.060 41.851 -92.811
267.560 41.076 -122.495
282.890 40.286 -153.901
299.090 39.474 172.912
316.230 38.634 137.837
334.340 37.761 100.863
353.500 36.851 61.889
373.750 35.906 20.902
395.160 34.928 -22.170
417.800 33.923 -67.405
441.730 32.902 -114.875
467.040 31.877 -164.737
493.800 30.861 142.858
522.090 29.868 87.698
552.000 28.904 29.511
583.620 27.968 -31.991
617.050 27.047 -97.085
652.400 26.125 -165.998
689.780 25.188 121.113
729.290 24.235 44.150
771.080 23.271 -37.098
815.250 22.310 -122.814
861.950 21.360 146.644
911.330 20.412 50.924
963.540 19.449 -50.166
1018.740 18.492 -156.746
1077.110 17.583 90.804
1138.810 16.738 -28.122
1204.050 15.945 -153.968
1273.030 15.236 72.657
1345.960 14.583 -69.282
1423.070 13.847 139.667
1504.590 12.958 -20.210
1590.790 11.957 171.103
1681.920 10.864 -6.702
1778.280 9.728 166.249
1880.150 8.699 -30.572
1987.870 7.819 120.938
2101.750 6.964 -100.577
2222.150 5.965 24.864
2349.460 4.908 137.591
2484.060 3.946 -123.844
2626.360 2.941 -41.194
2776.820 1.758 25.522
2935.900 0.440 76.245
3104.100 -0.841 110.333
3281.930 -2.093 125.620
3469.940 -3.279 121.831
3668.730 -4.338 95.697
3878.910 -5.615 45.836
4101.130 -7.450 -26.442
4336.070 -9.166 -119.731
4584.480 -10.527 120.422
4847.120 -11.977 -28.670
5124.810 -13.634 152.011
5418.400 -15.596 -55.955
5728.810 -17.479 65.169
6057.010 -19.221 150.604
6404.000 -21.289 -161.816
6770.880 -23.532 -150.502
7158.770 -25.732 -178.606
7568.890 -28.190 107.757
8002.500 -30.841 -10.796
8460.950 -33.814 -176.224
8945.670 -37.271 -33.113
9458.160 -41.354 57.009
10000.000 -46.359 91.859
