# Freq(Hz) SPL(dB) Phase (degrees)
10.000 53.446 -70.765
10.570 54.333 -74.666
11.180 55.225 -78.825
11.820 56.103 -83.170
12.500 56.977 -87.767
13.210 57.833 -92.548
13.970 58.692 -97.646
14.770 59.539 -102.993
15.620 60.380 -108.658
16.510 61.205 -114.577
17.460 62.027 -120.887
18.460 62.836 -127.530
19.510 63.628 -134.516
20.630 64.414 -141.994
21.810 65.182 -149.917
23.060 65.933 -158.376
24.380 66.658 -167.400
25.780 67.354 -177.090
27.260 68.006 172.525
28.820 68.596 161.426
30.470 69.108 149.546
32.220 69.518 136.858
34.060 69.796 123.538
36.010 69.922 109.615
38.080 69.877 95.259
40.260 69.658 80.815
42.560 69.275 66.477
45.000 68.746 52.344
47.580 68.098 38.572
50.310 67.357 25.191
53.190 66.550 12.227
56.230 65.696 -0.381
59.460 64.806 -12.779
62.860 63.897 -24.926
66.460 62.972 -36.969
70.270 62.039 -48.972
74.300 61.100 -60.996
78.550 60.162 -73.066
83.050 59.222 -85.289
87.810 58.284 -97.708
92.840 57.350 -110.364
98.160 56.420 -123.319
103.780 55.496 -136.607
109.730 54.578 -150.310
116.020 53.667 -164.460
122.660 52.768 -179.091
129.690 51.878 165.699
137.120 51.000 149.874
144.970 50.136 133.378
153.280 49.285 116.108
162.060 48.450 98.024
171.340 47.630 79.042
181.160 46.824 59.058
191.540 46.033 38.005
202.510 45.253 15.798
214.110 44.482 -7.667
226.380 43.715 -32.487
239.350 42.949 -58.738
253.060 42.176 -86.503
267.560 41.391 -115.875
282.890 40.587 -146.915
299.090 39.758 -179.665
316.230 38.899 145.784
334.340 38.010 109.440
353.500 37.089 71.219
373.750 36.145 31.121
395.160 35.190 -10.931
417.800 34.240 -55.046
441.730 33.317 -101.374
467.040 32.438 -150.205
493.800 31.612 158.135
522.090 30.826 103.279
552.000 30.049 44.908
583.620 29.238 -17.139
617.050 28.360 -82.856
652.400 27.405 -152.154
689.780 26.398 135.029
729.290 25.384 58.602
771.080 24.406 -21.855
815.250 23.478 -106.849
861.950 22.566 163.077
911.330 21.615 67.724
963.540 20.613 -32.734
1018.740 19.642 -138.280
1077.110 18.797 110.190
1138.810 18.010 -8.581
1204.050 17.104 -134.649
1273.030 16.081 92.849
1345.960 15.144 -46.034
1423.070 14.446 167.159
1504.590 13.904 10.542
1590.790 13.313 -156.557
1681.920 12.583 26.110
1778.280 11.706 -161.612
1880.150 10.654 0.310
1987.870 9.501 151.882
2101.750 8.377 -67.630
2222.150 7.329 60.615
2349.460 6.308 174.948
2484.060 5.118 -84.782
2626.360 3.918 2.151
2776.820 2.967 73.408
2935.900 2.022 126.336
3104.100 0.800 161.300
3281.930 -0.456 179.072
3469.940 -1.743 176.281
3668.730 -3.282 153.491
3878.910 -4.832 110.860
4101.130 -6.143 45.172
4336.070 -7.481 -45.370
4584.480 -8.832 -162.752
4847.120 -10.554 53.023
5124.810 -12.225 -117.531
5418.400 -13.541 41.438
5728.810 -15.014 165.985
6057.010 -16.684 -102.686
6404.000 -18.368 -46.417
6770.880 -19.841 -28.446
7158.770 -21.646 -52.714
7568.890 -23.556 -116.878
8002.500 -25.350 133.185
8460.950 -27.348 -24.014
8945.670 -29.425 128.571
9458.160 -31.643 -131.227
10000.000 -33.757 -86.765
