# Freq(Hz) SPL(dB) Phase (degrees)
10.000 53.150 -71.394
10.570 54.038 -75.332
11.180 54.930 -79.529
11.820 55.807 -83.914
12.500 56.682 -88.554
13.210 57.537 -93.379
13.970 58.396 -98.525
14.770 59.242 -103.922
15.620 60.083 -109.641
16.510 60.908 -115.616
17.460 61.730 -121.986
18.460 62.538 -128.692
19.510 63.330 -135.744
20.630 64.115 -143.293
21.810 64.883 -151.290
23.060 65.633 -159.827
24.380 66.358 -168.935
25.780 67.053 -178.712
27.260 67.704 170.809
28.820 68.294 159.612
30.470 68.805 147.629
32.220 69.213 134.831
34.060 69.490 121.395
36.010 69.615 107.349
38.080 69.568 92.863
40.260 69.348 78.282
42.560 68.963 63.800
45.000 68.431 49.513
47.580 67.780 35.579
50.310 67.036 22.027
53.190 66.226 8.883
56.230 65.369 -3.915
59.460 64.474 -16.514
62.860 63.560 -28.873
66.460 62.631 -41.139
70.270 61.691 -53.377
74.300 60.745 -65.647
78.550 59.799 -77.976
83.050 58.851 -90.471
87.810 57.903 -103.176
92.840 56.957 -116.129
98.160 56.014 -129.393
103.780 55.076 -143.003
109.730 54.142 -157.039
116.020 53.214 -171.532
122.660 52.296 173.486
129.690 51.385 157.917
137.120 50.485 141.728
144.970 49.597 124.864
153.280 48.722 107.225
162.060 47.862 88.772
171.340 47.018 69.423
181.160 46.190 49.070
191.540 45.378 27.648
202.510 44.581 5.068
214.110 43.798 -18.782
226.380 43.026 -44.009
239.350 42.261 -70.698
253.060 41.498 -98.950
267.560 40.732 -128.879
282.890 39.954 -160.567
299.090 39.160 165.913
316.230 38.342 130.439
334.340 37.493 92.983
353.500 36.609 53.424
373.750 35.687 11.732
395.160 34.722 -32.181
417.800 33.715 -78.396
441.730 32.665 -126.966
467.040 31.573 -177.991
493.800 30.445 128.497
522.090 29.295 72.452
552.000 28.150 13.779
583.620 27.049 -47.737
617.050 26.022 -112.500
652.400 25.075 178.963
689.780 24.179 106.184
729.290 23.291 28.913
771.080 22.380 -53.000
815.250 21.440 -139.520
861.950 20.495 129.217
911.330 19.577 32.867
963.540 18.698 -69.070
1018.740 17.839 -177.108
1077.110 16.953 68.381
1138.810 16.003 -52.547
1204.050 15.046 -179.641
1273.030 14.262 46.357
1345.960 13.654 -96.599
1423.070 12.946 110.424
1504.590 11.958 -51.610
1590.790 10.792 138.163
1681.920 9.582 -40.756
1778.280 8.364 131.069
1880.150 7.278 -66.639
1987.870 6.443 83.942
2101.750 5.727 -138.911
2222.150 4.952 -16.105
2349.460 3.900 92.428
2484.060 2.665 -171.984
2626.360 1.530 -90.928
2776.820 0.344 -26.299
2935.900 -0.936 21.688
3104.100 -2.330 52.751
3281.930 -3.507 66.269
3469.940 -4.486 58.143
3668.730 -5.643 26.996
3878.910 -7.251 -26.669
4101.130 -8.984 -100.962
4336.070 -10.538 160.552
4584.480 -11.995 35.039
4847.120 -13.537 -120.145
5124.810 -15.626 56.270
5418.400 -17.491 -155.953
5728.810 -19.200 -43.981
6057.010 -21.700 34.081
6404.000 -23.942 78.418
6770.880 -26.171 80.770
7158.770 -29.121 42.624
7568.890 -31.944 -36.581
8002.500 -35.560 -165.255
8460.950 -39.728 18.791
8945.670 -45.126 149.214
9458.160 -53.722 -143.872
10000.000 -62.678 120.168
