# Freq(Hz) SPL(dB) Phase (degrees)
10.000 53.476 -70.701
10.570 54.364 -74.600
11.180 55.255 -78.755
11.820 56.133 -83.095
12.500 57.008 -87.688
13.210 57.864 -92.465
13.970 58.722 -97.557
14.770 59.569 -102.900
15.620 60.410 -108.560
16.510 61.235 -114.473
17.460 62.057 -120.777
18.460 62.866 -127.414
19.510 63.658 -134.393
20.630 64.444 -141.864
21.810 65.212 -149.780
23.060 65.963 -158.231
24.380 66.689 -167.247
25.780 67.384 -176.927
27.260 68.036 172.697
28.820 68.627 161.608
30.470 69.139 149.738
32.220 69.548 137.061
34.060 69.827 123.753
36.010 69.953 109.842
38.080 69.908 95.499
40.260 69.689 81.069
42.560 69.306 66.746
45.000 68.777 52.628
47.580 68.129 38.872
50.310 67.388 25.509
53.190 66.581 12.562
56.230 65.728 -0.026
59.460 64.837 -12.404
62.860 63.928 -24.530
66.460 63.004 -36.550
70.270 62.071 -48.529
74.300 61.132 -60.527
78.550 60.194 -72.570
83.050 59.255 -84.766
87.810 58.317 -97.155
92.840 57.383 -109.780
98.160 56.453 -122.701
103.780 55.529 -135.955
109.730 54.611 -149.621
116.020 53.701 -163.733
122.660 52.802 -178.322
129.690 51.912 166.511
137.120 51.034 150.733
144.970 50.169 134.286
153.280 49.318 117.069
162.060 48.481 99.043
171.340 47.660 80.126
181.160 46.852 60.212
191.540 46.058 39.239
202.510 45.275 17.124
214.110 44.500 -6.234
226.380 43.729 -30.931
239.350 42.958 -57.034
253.060 42.180 -84.624
267.560 41.391 -113.786
282.890 40.584 -144.573
299.090 39.756 -177.023
316.230 38.903 148.786
334.340 38.027 112.865
353.500 37.132 75.134
373.750 36.233 35.583
395.160 35.346 -5.890
417.800 34.497 -49.447
441.730 33.708 -95.327
467.040 32.993 -143.925
493.800 32.346 164.340
522.090 31.732 109.066
552.000 31.097 49.993
583.620 30.384 -12.899
617.050 29.557 -79.441
652.400 28.621 -149.394
689.780 27.622 137.385
729.290 26.636 60.790
771.080 25.728 -19.733
815.250 24.917 -104.884
861.950 24.162 164.635
911.330 23.397 68.511
963.540 22.598 -33.268
1018.740 21.802 -140.942
1077.110 21.010 104.649
1138.810 20.091 -17.120
1204.050 18.892 -145.721
1273.030 17.458 80.000
1345.960 16.001 -59.557
1423.070 14.754 154.840
1504.590 13.879 1.479
1590.790 13.367 -161.965
1681.920 13.017 22.785
1778.280 12.568 -164.769
1880.150 11.890 -3.917
1987.870 11.049 145.219
2101.750 9.953 -77.751
2222.150 8.621 47.808
2349.460 7.205 161.803
2484.060 5.999 -96.871
2626.360 4.941 -11.527
2776.820 3.697 57.383
2935.900 2.325 110.838
3104.100 1.053 147.279
3281.930 -0.232 165.021
3469.940 -1.546 162.215
3668.730 -3.310 139.795
3878.910 -4.967 99.569
4101.130 -5.841 36.158
4336.070 -6.842 -56.264
4584.480 -8.347 -174.272
4847.120 -9.978 43.218
5124.810 -11.223 -126.880
5418.400 -12.414 31.997
5728.810 -13.408 157.341
6057.010 -14.588 -112.923
6404.000 -15.924 -58.020
6770.880 -17.223 -41.953
7158.770 -18.575 -64.019
7568.890 -19.902 -130.525
8002.500 -21.387 117.904
8460.950 -22.841 -40.316
8945.670 -24.315 111.170
9458.160 -25.729 -150.109
10000.000 -27.260 -107.886
