# Freq(Hz) SPL(dB) Phase (degrees)
10.000 52.458 -72.958
10.570 53.345 -76.985
11.180 54.236 -81.277
11.820 55.114 -85.763
12.500 55.988 -90.509
13.210 56.843 -95.446
13.970 57.702 -100.710
14.770 58.547 -106.233
15.620 59.388 -112.085
16.510 60.212 -118.199
17.460 61.034 -124.718
18.460 61.841 -131.581
19.510 62.632 -138.798
20.630 63.417 -146.522
21.810 64.183 -154.704
23.060 64.933 -163.438
24.380 65.657 -172.753
25.780 66.350 177.249
27.260 67.000 166.538
28.820 67.588 155.096
30.470 68.097 142.853
32.220 68.503 129.779
34.060 68.778 116.053
36.010 68.900 101.700
38.080 68.851 86.887
40.260 68.627 71.961
42.560 68.238 57.115
45.000 67.702 42.443
47.580 67.046 28.100
50.310 66.296 14.115
53.190 65.480 0.513
56.230 64.615 -12.768
59.460 63.712 -25.881
62.860 62.788 -38.780
66.460 61.848 -51.620
70.270 60.895 -64.465
74.300 59.935 -77.377
78.550 58.972 -90.382
83.050 58.005 -103.591
87.810 57.034 -117.049
92.840 56.063 -130.795
98.160 55.090 -144.893
103.780 54.118 -159.377
109.730 53.145 -174.328
116.020 52.172 170.225
122.660 51.202 154.255
129.690 50.232 137.663
137.120 49.266 120.425
144.970 48.304 102.492
153.280 47.345 83.772
162.060 46.393 64.238
171.340 45.448 43.820
181.160 44.512 22.424
191.540 43.586 -0.000
202.510 42.673 -23.529
214.110 41.773 -48.261
226.380 40.887 -74.295
239.350 40.018 -101.714
253.060 39.166 -130.621
267.560 38.331 -161.144
282.890 37.512 166.609
299.090 36.710 132.532
316.230 35.922 96.451
334.340 35.148 58.277
353.500 34.383 17.814
373.750 33.624 -25.050
395.160 32.865 -70.490
417.800 32.096 -118.675
441.730 31.307 -169.737
467.040 30.481 136.157
493.800 29.602 78.938
522.090 28.656 18.589
552.000 27.640 -44.853
583.620 26.573 -111.318
617.050 25.500 179.172
652.400 24.482 106.372
689.780 23.572 29.774
729.290 22.792 -51.288
771.080 22.113 -137.564
815.250 21.480 130.502
861.950 20.836 32.611
911.330 20.139 -71.377
963.540 19.369 178.425
1018.740 18.508 61.947
1077.110 17.563 -60.842
1138.810 16.590 170.085
1204.050 15.689 34.142
1273.030 14.904 -109.826
1345.960 14.144 97.001
1423.070 13.254 -65.670
1504.590 12.188 122.706
1590.790 11.059 -57.805
1681.920 9.951 111.896
1778.280 8.861 -89.017
1880.150 7.808 58.702
1987.870 6.742 -166.065
2101.750 5.625 -43.431
2222.150 4.491 65.917
2349.460 3.374 161.358
2484.060 2.372 -118.500
2626.360 1.331 -55.199
2776.820 0.192 -8.554
2935.900 -0.891 20.277
3104.100 -2.011 29.399
3281.930 -3.279 18.839
3469.940 -4.470 -12.358
3668.730 -5.679 -67.028
3878.910 -7.012 -145.147
4101.130 -8.370 111.578
4336.070 -9.810 -18.463
4584.480 -11.344 -176.489
4847.120 -12.973 -5.049
5124.810 -14.820 134.933
5418.400 -17.111 -117.899
5728.810 -19.545 -44.034
6057.010 -22.138 -6.267
6404.000 -24.835 -6.061
6770.880 -27.400 -47.968
7158.770 -30.398 -133.507
7568.890 -33.907 93.174
8002.500 -38.491 -86.888
8460.950 -44.361 43.151
8945.670 -52.707 122.470
9458.160 -65.875 -95.181
10000.000 -54.982 -100.070
