# Freq(Hz) SPL(dB) Phase (degrees)
10.000 52.347 -73.219
10.570 53.235 -77.261
11.180 54.126 -81.569
11.820 55.003 -86.071
12.500 55.878 -90.836
13.210 56.733 -95.791
13.970 57.591 -101.075
14.770 58.437 -106.619
15.620 59.278 -112.493
16.510 60.101 -118.631
17.460 60.923 -125.175
18.460 61.731 -132.063
19.510 62.521 -139.308
20.630 63.306 -147.062
21.810 64.073 -155.275
23.060 64.822 -164.041
24.380 65.546 -173.391
25.780 66.239 176.575
27.260 66.889 165.825
28.820 67.477 154.341
30.470 67.986 142.055
32.220 68.392 128.935
34.060 68.667 115.160
36.010 68.788 100.755
38.080 68.739 85.888
40.260 68.514 70.904
42.560 68.125 55.997
45.000 67.589 41.260
47.580 66.933 26.848
50.310 66.183 12.790
53.190 65.366 -0.889
56.230 64.501 -14.252
59.460 63.597 -27.452
62.860 62.673 -40.443
66.460 61.731 -53.380
70.270 60.777 -66.329
74.300 59.816 -79.350
78.550 58.852 -92.472
83.050 57.882 -105.805
87.810 56.910 -119.394
92.840 55.936 -133.279
98.160 54.961 -147.524
103.780 53.985 -162.164
109.730 53.008 -177.280
116.020 52.031 167.099
122.660 51.055 150.945
129.690 50.079 134.160
137.120 49.104 116.719
144.970 48.133 98.575
153.280 47.164 79.635
162.060 46.199 59.874
171.340 45.241 39.223
181.160 44.288 17.590
191.540 43.345 -5.073
202.510 42.411 -28.839
214.110 41.490 -53.803
226.380 40.582 -80.062
239.350 39.690 -107.694
253.060 38.814 -136.801
267.560 37.957 -167.509
282.890 37.119 160.074
299.090 36.301 125.836
316.230 35.504 89.599
334.340 34.727 51.263
353.500 33.967 10.616
373.750 33.222 -32.470
395.160 32.486 -78.192
417.800 31.747 -126.743
441.730 30.993 -178.280
467.040 30.204 127.007
493.800 29.357 69.029
522.090 28.430 7.759
552.000 27.411 -56.748
583.620 26.305 -124.365
617.050 25.152 164.996
652.400 24.015 91.243
689.780 22.967 14.003
729.290 22.059 -67.353
771.080 21.294 -153.675
815.250 20.631 114.407
861.950 20.009 16.403
911.330 19.374 -87.972
963.540 18.685 161.067
1018.740 17.900 43.387
1077.110 16.988 -81.024
1138.810 15.962 148.087
1204.050 14.921 10.631
1273.030 13.980 -134.187
1345.960 13.137 72.235
1423.070 12.255 -90.952
1504.590 11.242 96.458
1590.790 10.163 -85.430
1681.920 9.085 82.555
1778.280 7.976 -120.327
1880.150 6.846 25.511
1987.870 5.704 159.178
2101.750 4.548 -79.714
2222.150 3.399 27.758
2349.460 2.191 121.175
2484.060 1.131 -159.957
2626.360 0.192 -98.355
2776.820 -0.920 -54.708
2935.900 -2.140 -28.206
3104.100 -3.206 -20.539
3281.930 -4.326 -34.491
3469.940 -5.660 -69.057
3668.730 -6.835 -125.839
3878.910 -8.044 152.437
4101.130 -9.443 44.790
4336.070 -10.978 -88.700
4584.480 -12.512 109.317
4847.120 -14.154 -83.100
5124.810 -16.080 52.744
5418.400 -18.268 155.366
5728.810 -20.714 -136.230
6057.010 -23.282 -103.346
6404.000 -25.996 -109.705
6770.880 -28.742 -156.871
7158.770 -31.754 110.019
7568.890 -35.777 -30.911
8002.500 -40.936 139.274
8460.950 -48.451 -98.199
8945.670 -71.501 -31.813
9458.160 -54.102 150.446
10000.000 -49.875 99.226
