# Freq(Hz) SPL(dB) Phase (degrees)
10.000 52.780 -72.214
10.570 53.667 -76.199
11.180 54.559 -80.446
11.820 55.436 -84.883
12.500 56.310 -89.579
13.210 57.166 -94.463
13.970 58.024 -99.671
14.770 58.870 -105.134
15.620 59.711 -110.923
16.510 60.535 -116.970
17.460 61.357 -123.419
18.460 62.165 -130.207
19.510 62.956 -137.345
20.630 63.741 -144.986
21.810 64.508 -153.080
23.060 65.257 -161.720
24.380 65.982 -170.936
25.780 66.676 179.171
27.260 67.326 168.570
28.820 67.914 157.245
30.470 68.424 145.125
32.220 68.831 132.183
34.060 69.107 118.595
36.010 69.229 104.388
38.080 69.181 89.731
40.260 68.958 74.970
42.560 68.570 60.298
45.000 68.036 45.810
47.580 67.382 31.662
50.310 66.634 17.884
53.190 65.819 4.501
56.230 64.957 -8.548
59.460 64.057 -21.416
62.860 63.137 -34.055
66.460 62.200 -46.619
70.270 61.251 -59.172
74.300 60.296 -71.774
78.550 59.339 -84.452
83.050 58.378 -97.316
87.810 57.416 -110.407
92.840 56.454 -123.766
98.160 55.492 -137.456
103.780 54.532 -151.509
109.730 53.574 -166.006
116.020 52.618 179.024
122.660 51.667 163.552
129.690 50.720 147.480
137.120 49.780 130.783
144.970 48.847 113.408
153.280 47.923 95.262
162.060 47.008 76.313
171.340 46.106 56.485
181.160 45.216 35.681
191.540 44.341 13.842
202.510 43.480 -9.114
214.110 42.635 -33.291
226.380 41.804 -58.794
239.350 40.987 -85.706
253.060 40.182 -114.131
267.560 39.386 -144.188
282.890 38.596 -175.973
299.090 37.809 150.425
316.230 37.020 114.863
334.340 36.227 77.287
353.500 35.425 37.546
373.750 34.613 -4.424
395.160 33.788 -48.743
417.800 32.949 -95.526
441.730 32.098 -144.863
467.040 31.234 163.101
493.800 30.363 108.266
522.090 29.493 50.506
552.000 28.638 -10.356
583.620 27.812 -74.543
617.050 27.027 -142.355
652.400 26.285 145.846
689.780 25.577 69.695
729.290 24.884 -11.118
771.080 24.176 -96.910
815.250 23.427 172.230
861.950 22.624 76.217
911.330 21.785 -25.022
963.540 20.945 -131.667
1018.740 20.157 115.905
1077.110 19.463 -3.033
1138.810 18.857 -129.412
1204.050 18.236 95.897
1273.030 17.489 -47.259
1345.960 16.557 161.343
1423.070 15.454 1.961
1504.590 14.274 -165.311
1590.790 13.143 18.821
1681.920 12.101 -166.792
1778.280 11.118 -3.170
1880.150 10.170 149.059
1987.870 9.204 -70.980
2101.750 8.218 56.198
2222.150 7.177 169.956
2349.460 6.086 -90.274
2484.060 4.974 -5.329
2626.360 3.809 63.673
2776.820 2.520 116.223
2935.900 1.185 151.943
3104.100 -0.116 169.172
3281.930 -1.499 166.733
3469.940 -2.942 144.061
3668.730 -4.409 99.628
3878.910 -5.924 32.757
4101.130 -7.249 -58.787
4336.070 -8.733 -177.607
4584.480 -10.479 36.089
4847.120 -12.408 -138.194
5124.810 -14.463 18.147
5418.400 -16.586 143.246
5728.810 -18.598 -125.975
6057.010 -20.809 -70.117
6404.000 -23.090 -51.852
6770.880 -25.436 -73.141
7158.770 -27.570 -138.466
7568.890 -29.566 111.644
8002.500 -32.271 -46.821
8460.950 -35.451 103.686
8945.670 -38.959 -158.857
9458.160 -43.356 -119.395
10000.000 -49.493 -135.650
