# Freq(Hz) SPL(dB) Phase (degrees)
10.000 51.093 -76.442
10.570 51.981 -80.668
11.180 52.873 -85.173
11.820 53.750 -89.882
12.500 54.625 -94.866
13.210 55.481 -100.050
13.970 56.339 -105.580
14.770 57.186 -111.382
15.620 58.027 -117.531
16.510 58.851 -123.956
17.460 59.674 -130.807
18.460 60.482 -138.019
19.510 61.274 -145.603
20.630 62.060 -153.719
21.810 62.827 -162.314
23.060 63.578 -171.486
24.380 64.303 178.737
25.780 64.998 168.249
27.260 65.649 157.018
28.820 66.239 145.028
30.470 66.750 132.205
32.220 67.159 118.515
34.060 67.436 104.141
36.010 67.560 89.100
38.080 67.514 73.556
40.260 67.293 57.859
42.560 66.908 42.198
45.000 66.376 26.659
47.580 65.725 11.398
50.310 64.980 -3.561
53.190 64.169 -18.193
56.230 63.310 -32.564
59.460 62.413 -46.840
62.860 61.496 -60.967
66.460 60.563 -75.111
70.270 59.618 -89.343
74.300 58.666 -103.729
78.550 57.712 -118.295
83.050 56.754 -133.168
87.810 55.793 -148.394
92.840 54.831 -164.021
98.160 53.869 179.879
103.780 52.906 163.266
109.730 51.941 146.043
116.020 50.976 128.178
122.660 50.011 109.634
129.690 49.045 90.297
137.120 48.078 70.134
144.970 47.111 49.088
153.280 46.142 27.048
162.060 45.173 3.985
171.340 44.202 -20.185
181.160 43.228 -45.568
191.540 42.252 -72.219
202.510 41.273 -100.218
214.110 40.289 -129.669
226.380 39.299 -160.674
239.350 38.303 166.689
253.060 37.298 132.323
267.560 36.283 96.106
282.890 35.256 57.944
299.090 34.216 17.745
316.230 33.162 -24.655
334.340 32.092 -69.323
353.500 31.007 -116.449
373.750 29.905 -166.132
395.160 28.785 141.448
417.800 27.644 86.103
441.730 26.474 27.667
467.040 25.264 -34.092
493.800 23.993 -99.319
522.090 22.637 -168.105
552.000 21.174 119.556
583.620 19.596 43.805
617.050 17.926 -35.164
652.400 16.228 -117.227
689.780 14.601 157.511
729.290 13.159 68.587
771.080 11.993 -24.990
815.250 11.129 -124.372
861.950 10.522 129.202
911.330 10.070 14.756
963.540 9.645 -108.332
1018.740 9.113 119.604
1077.110 8.323 -21.449
1138.810 7.153 -170.739
1204.050 5.610 32.765
1273.030 3.863 -129.915
1345.960 2.202 61.075
1423.070 0.902 -115.752
1504.590 0.053 57.036
1590.790 -0.432 -142.618
1681.920 -0.682 3.390
1778.280 -0.992 133.661
1880.150 -1.670 -111.558
1987.870 -2.770 -11.409
2101.750 -4.307 74.410
2222.150 -6.252 145.772
2349.460 -8.654 -156.639
2484.060 -11.167 -111.142
2626.360 -13.098 -80.747
2776.820 -14.654 -70.447
2935.900 -16.103 -81.035
3104.100 -17.480 -114.496
3281.930 -19.026 -170.064
3469.940 -20.381 111.656
3668.730 -21.443 6.199
3878.910 -22.403 -130.081
4101.130 -23.751 61.701
4336.070 -26.143 -138.993
4584.480 -30.022 -7.057
4847.120 -34.052 105.872
5124.810 -36.031 -172.655
5418.400 -37.263 -142.112
5728.810 -40.293 -147.800
6057.010 -42.119 166.802
6404.000 -45.200 52.727
6770.880 -53.616 -93.064
7158.770 -50.390 80.669
7568.890 -59.733 -112.030
8002.500 -66.612 -26.616
8460.950 -77.882 1.373
8945.670 -72.418 23.940
9458.160 -70.190 -81.286
10000.000 -66.945 126.768
