# Freq(Hz) SPL(dB) Phase (degrees)
10.000 52.021 -74.013
10.570 52.908 -78.100
11.180 53.799 -82.457
11.820 54.677 -87.010
12.500 55.551 -91.829
13.210 56.406 -96.840
13.970 57.264 -102.185
14.770 58.110 -107.793
15.620 58.951 -113.734
16.510 59.774 -119.943
17.460 60.596 -126.562
18.460 61.404 -133.531
19.510 62.194 -140.859
20.630 62.979 -148.702
21.810 63.746 -157.010
23.060 64.495 -165.876
24.380 65.219 -175.331
25.780 65.912 174.523
27.260 66.561 163.654
28.820 67.149 152.046
30.470 67.658 139.627
32.220 68.065 126.366
34.060 68.339 112.444
36.010 68.460 97.882
38.080 68.411 82.847
40.260 68.186 67.687
42.560 67.797 52.594
45.000 67.260 37.659
47.580 66.604 23.037
50.310 65.853 8.756
53.190 65.036 -5.158
56.230 64.170 -18.770
59.460 63.265 -32.237
62.860 62.340 -45.509
66.460 61.397 -58.744
70.270 60.442 -72.010
74.300 59.478 -85.369
78.550 58.512 -98.848
83.050 57.540 -112.562
87.810 56.564 -126.555
92.840 55.586 -140.870
98.160 54.605 -155.572
103.780 53.624 -170.696
109.730 52.638 173.671
116.020 51.651 157.502
122.660 50.664 140.768
129.690 49.674 123.368
137.120 48.682 105.276
144.970 47.690 86.444
153.280 46.696 66.780
162.060 45.702 46.260
171.340 44.708 24.818
181.160 43.713 2.365
191.540 42.721 -21.143
202.510 41.731 -45.769
214.110 40.744 -71.599
226.380 39.763 -98.719
239.350 38.789 -127.190
253.060 37.827 -157.099
267.560 36.878 171.444
282.890 35.948 138.346
299.090 35.043 103.506
316.230 34.168 66.745
334.340 33.330 27.952
353.500 32.533 -13.111
373.750 31.783 -56.621
395.160 31.075 -102.839
417.800 30.404 -152.036
441.730 29.753 155.541
467.040 29.098 99.607
493.800 28.407 39.979
522.090 27.642 -23.457
552.000 26.767 -90.716
583.620 25.759 -161.692
617.050 24.617 123.768
652.400 23.368 45.773
689.780 22.059 -35.673
729.290 20.750 -120.699
771.080 19.496 150.295
815.250 18.352 56.883
861.950 17.354 -41.588
911.330 16.523 -145.894
963.540 15.846 103.079
1018.740 15.255 -15.507
1077.110 14.645 -142.222
1138.810 13.911 82.875
1204.050 12.997 -60.023
1273.030 11.925 149.304
1345.960 10.757 -9.317
1423.070 9.528 -176.379
1504.590 8.262 7.795
1590.790 7.030 -177.257
1681.920 5.926 -12.599
1778.280 4.921 140.232
1880.150 3.883 -79.745
1987.870 2.674 47.083
2101.750 1.214 161.427
2222.150 -0.260 -96.159
2349.460 -1.470 -8.086
2484.060 -2.589 63.869
2626.360 -3.810 118.214
2776.820 -5.145 156.003
2935.900 -6.309 176.077
3104.100 -7.299 174.936
3281.930 -8.583 151.726
3469.940 -10.087 108.322
3668.730 -11.371 42.934
3878.910 -12.515 -48.827
4101.130 -13.922 -168.229
4336.070 -15.692 46.245
4584.480 -17.424 -127.836
4847.120 -19.387 27.550
5124.810 -21.397 151.009
5418.400 -23.719 -119.930
5728.810 -26.211 -64.854
6057.010 -28.737 -49.854
6404.000 -31.640 -71.952
6770.880 -34.584 -138.509
7158.770 -38.462 110.190
7568.890 -43.046 -51.548
8002.500 -49.663 94.253
8460.950 -65.298 -176.406
8945.670 -58.100 54.426
9458.160 -52.945 41.765
10000.000 -50.832 -44.212
