# Freq(Hz) SPL(dB) Phase (degrees)
10.000 53.492 -70.668
10.570 54.380 -74.564
11.180 55.272 -78.717
11.820 56.149 -83.055
12.500 57.024 -87.646
13.210 57.880 -92.420
13.970 58.739 -97.510
14.770 59.585 -102.850
15.620 60.427 -108.507
16.510 61.251 -114.417
17.460 62.074 -120.718
18.460 62.882 -127.351
19.510 63.674 -134.327
20.630 64.461 -141.795
21.810 65.229 -149.706
23.060 65.980 -158.153
24.380 66.705 -167.164
25.780 67.401 -176.840
27.260 68.053 172.789
28.820 68.644 161.705
30.470 69.156 149.841
32.220 69.566 137.170
34.060 69.844 123.868
36.010 69.970 109.964
38.080 69.926 95.628
40.260 69.707 81.205
42.560 69.324 66.889
45.000 68.795 52.780
47.580 68.147 39.032
50.310 67.407 25.678
53.190 66.601 12.741
56.230 65.748 0.162
59.460 64.857 -12.205
62.860 63.949 -24.320
66.460 63.026 -36.329
70.270 62.093 -48.296
74.300 61.155 -60.281
78.550 60.218 -72.312
83.050 59.280 -84.493
87.810 58.343 -96.869
92.840 57.410 -109.480
98.160 56.482 -122.387
103.780 55.560 -135.626
109.730 54.643 -149.278
116.020 53.736 -163.375
122.660 52.839 -177.951
129.690 51.951 166.894
137.120 51.076 151.127
144.970 50.215 134.689
153.280 49.366 117.479
162.060 48.534 99.457
171.340 47.716 80.539
181.160 46.912 60.620
191.540 46.122 39.637
202.510 45.342 17.504
214.110 44.571 -5.879
226.380 43.804 -30.609
239.350 43.035 -56.756
253.060 42.259 -84.402
267.560 41.470 -113.634
282.890 40.662 -144.506
299.090 39.830 -177.057
316.230 38.969 148.630
334.340 38.080 112.570
353.500 37.167 74.682
373.750 36.239 34.963
395.160 35.313 -6.675
417.800 34.411 -50.371
441.730 33.556 -96.328
467.040 32.764 -144.902
493.800 32.034 163.516
522.090 31.341 108.534
552.000 30.636 49.866
583.620 29.868 -12.557
617.050 29.001 -78.616
652.400 28.035 -148.117
689.780 27.012 139.052
729.290 25.996 62.777
771.080 25.043 -17.474
815.250 24.165 -102.349
861.950 23.312 167.538
911.330 22.415 72.014
963.540 21.465 -28.728
1018.740 20.542 -134.768
1077.110 19.710 112.884
1138.810 18.848 -6.859
1204.050 17.757 -133.626
1273.030 16.471 93.973
1345.960 15.289 -43.617
1423.070 14.506 171.696
1504.590 14.063 17.031
1590.790 13.677 -148.832
1681.920 13.184 34.202
1778.280 12.491 -153.916
1880.150 11.532 7.374
1987.870 10.428 158.250
2101.750 9.286 -61.991
2222.150 8.149 65.540
2349.460 6.919 179.819
2484.060 5.623 -78.897
2626.360 4.393 8.356
2776.820 3.263 80.084
2935.900 2.143 134.932
3104.100 1.078 172.648
3281.930 0.109 -169.682
3469.940 -1.170 -172.544
3668.730 -2.719 164.276
3878.910 -4.576 121.780
4101.130 -6.137 59.655
4336.070 -7.135 -28.699
4584.480 -8.495 -144.567
4847.120 -9.881 73.410
5124.810 -11.377 -97.392
5418.400 -12.847 62.102
5728.810 -14.229 -169.666
6057.010 -15.387 -76.789
6404.000 -16.814 -20.154
6770.880 -18.341 -1.413
7158.770 -19.902 -22.224
7568.890 -21.384 -85.565
8002.500 -22.974 165.877
8460.950 -24.664 10.635
8945.670 -26.345 165.131
9458.160 -28.065 -93.071
10000.000 -29.736 -48.794
