# Freq(Hz) SPL(dB) Phase (degrees)
10.000 51.030 -76.620
10.570 51.918 -80.855
11.180 52.809 -85.371
11.820 53.687 -90.091
12.500 54.561 -95.087
13.210 55.417 -100.284
13.970 56.276 -105.827
14.770 57.122 -111.644
15.620 57.964 -117.807
16.510 58.788 -124.248
17.460 59.611 -131.116
18.460 60.419 -138.346
19.510 61.211 -145.949
20.630 61.997 -154.085
21.810 62.765 -162.701
23.060 63.516 -171.894
24.380 64.241 178.305
25.780 64.936 167.792
27.260 65.588 156.535
28.820 66.178 144.517
30.470 66.690 131.665
32.220 67.099 117.944
34.060 67.376 103.537
36.010 67.501 88.461
38.080 67.456 72.880
40.260 67.235 57.144
42.560 66.851 41.443
45.000 66.320 25.860
47.580 65.669 10.553
50.310 64.926 -4.455
53.190 64.116 -19.139
56.230 63.258 -33.564
59.460 62.362 -47.898
62.860 61.447 -62.086
66.460 60.516 -76.296
70.270 59.573 -90.596
74.300 58.623 -105.055
78.550 57.672 -119.699
83.050 56.716 -134.653
87.810 55.758 -149.966
92.840 54.800 -165.685
98.160 53.841 178.117
103.780 52.882 161.399
109.730 51.922 144.067
116.020 50.962 126.084
122.660 50.004 107.416
129.690 49.044 87.945
137.120 48.085 67.641
144.970 47.126 46.445
153.280 46.166 24.244
162.060 45.207 1.008
171.340 44.248 -23.345
181.160 43.287 -48.924
191.540 42.325 -75.786
202.510 41.361 -104.011
214.110 40.395 -133.705
226.380 39.425 -164.973
239.350 38.451 162.108
253.060 37.470 127.437
267.560 36.482 90.889
282.890 35.485 52.368
299.090 34.479 11.780
316.230 33.461 -31.044
334.340 32.433 -76.171
353.500 31.392 -123.798
373.750 30.341 -174.027
395.160 29.279 132.957
417.800 28.202 76.959
441.730 27.109 17.798
467.040 25.986 -44.777
493.800 24.819 -110.945
522.090 23.587 179.146
552.000 22.265 105.417
583.620 20.842 27.894
617.050 19.323 -53.359
652.400 17.738 -138.321
689.780 16.138 132.924
729.290 14.583 40.165
771.080 13.134 -57.075
815.250 11.851 -159.324
861.950 10.778 92.571
911.330 9.929 -22.458
963.540 9.252 -145.565
1018.740 8.630 82.258
1077.110 7.883 -59.609
1138.810 6.814 149.081
1204.050 5.333 -10.923
1273.030 3.444 -178.662
1345.960 1.225 6.411
1423.070 -1.226 -174.984
1504.590 -3.635 -1.894
1590.790 -5.411 165.543
1681.920 -5.847 -37.822
1778.280 -5.359 99.907
1880.150 -4.964 -142.571
1987.870 -5.047 -42.783
2101.750 -5.672 40.657
2222.150 -6.802 108.293
2349.460 -8.496 160.622
2484.060 -10.592 -159.991
2626.360 -12.192 -133.788
2776.820 -12.929 -128.441
2935.900 -13.481 -148.636
3104.100 -14.297 164.784
3281.930 -16.031 91.613
3469.940 -19.063 -4.394
3668.730 -23.264 -116.866
3878.910 -26.312 119.575
4101.130 -26.994 -42.880
4336.070 -29.368 115.809
4584.480 -33.582 -105.820
4847.120 -34.275 16.736
5124.810 -33.586 74.712
5418.400 -34.924 85.933
5728.810 -38.670 62.419
6057.010 -42.346 2.604
6404.000 -45.280 -101.266
6770.880 -51.196 99.331
7158.770 -59.927 -57.170
7568.890 -64.888 110.430
8002.500 -66.549 163.352
8460.950 -71.594 -177.539
8945.670 -68.936 166.432
9458.160 -67.655 57.568
10000.000 -69.480 -152.520
