# Freq(Hz) SPL(dB) Phase (degrees)
10.000 51.010 -76.676
10.570 51.897 -80.915
11.180 52.789 -85.435
11.820 53.667 -90.158
12.500 54.541 -95.158
13.210 55.397 -100.359
13.970 56.256 -105.906
14.770 57.102 -111.727
15.620 57.944 -117.896
16.510 58.768 -124.341
17.460 59.591 -131.215
18.460 60.399 -138.450
19.510 61.191 -146.059
20.630 61.977 -154.201
21.810 62.745 -162.824
23.060 63.496 -172.025
24.380 64.221 178.167
25.780 64.917 167.646
27.260 65.568 156.381
28.820 66.159 144.354
30.470 66.670 131.492
32.220 67.080 117.762
34.060 67.358 103.345
36.010 67.483 88.258
38.080 67.437 72.665
40.260 67.217 56.917
42.560 66.833 41.202
45.000 66.302 25.605
47.580 65.652 10.283
50.310 64.909 -4.740
53.190 64.099 -19.440
56.230 63.242 -33.883
59.460 62.347 -48.235
62.860 61.432 -62.443
66.460 60.501 -76.673
70.270 59.559 -90.996
74.300 58.610 -105.477
78.550 57.659 -120.146
83.050 56.705 -135.126
87.810 55.748 -150.467
92.840 54.791 -166.215
98.160 53.833 177.556
103.780 52.876 160.806
109.730 51.918 143.438
116.020 50.960 125.418
122.660 50.003 106.711
129.690 49.046 87.198
137.120 48.089 66.850
144.970 47.134 45.606
153.280 46.177 23.355
162.060 45.222 0.065
171.340 44.266 -24.345
181.160 43.310 -49.986
191.540 42.353 -76.913
202.510 41.395 -105.208
214.110 40.436 -134.978
226.380 39.473 -166.327
239.350 38.506 160.667
253.060 37.534 125.902
267.560 36.555 89.253
282.890 35.569 50.624
299.090 34.574 9.919
316.230 33.569 -33.030
334.340 32.555 -78.292
353.500 31.530 -126.062
373.750 30.496 -176.443
395.160 29.453 130.381
417.800 28.400 74.214
441.730 27.332 14.875
467.040 26.242 -47.891
493.800 25.114 -114.268
522.090 23.929 175.583
552.000 22.666 101.560
583.620 21.313 23.657
617.050 19.875 -58.105
652.400 18.377 -143.750
689.780 16.862 126.602
729.290 15.377 32.726
771.080 13.970 -65.824
815.250 12.685 -169.479
861.950 11.566 81.068
911.330 10.639 -35.082
963.540 9.885 -159.006
1018.740 9.220 68.239
1077.110 8.490 -74.155
1138.810 7.509 133.791
1204.050 6.180 -27.427
1273.030 4.491 162.793
1345.960 2.484 -15.455
1423.070 0.141 157.881
1504.590 -2.538 -36.563
1590.790 -5.461 122.883
1681.920 -7.958 -81.396
1778.280 -8.787 65.263
1880.150 -8.391 -168.948
1987.870 -8.077 -65.089
2101.750 -8.312 19.677
2222.150 -9.174 86.999
2349.460 -10.811 137.825
2484.060 -13.302 175.947
2626.360 -15.535 -153.909
2776.820 -15.916 -141.289
2935.900 -15.443 -158.494
3104.100 -15.241 154.327
3281.930 -16.041 78.554
3469.940 -18.182 -21.657
3668.730 -21.513 -141.322
3878.910 -24.535 85.553
4101.130 -24.842 -81.067
4336.070 -26.160 65.990
4584.480 -29.898 175.562
4847.120 -37.735 -94.183
5124.810 -42.174 3.633
5418.400 -42.215 29.949
5728.810 -47.594 18.078
6057.010 -47.428 -5.408
6404.000 -45.895 -121.945
6770.880 -50.241 68.927
7158.770 -49.729 -117.249
7568.890 -60.845 -57.284
8002.500 -77.630 -20.381
8460.950 -76.324 131.677
8945.670 -71.844 75.290
9458.160 -66.933 59.881
10000.000 -62.864 176.750
