# Freq(Hz) SPL(dB) Phase (degrees)
10.000 53.406 -70.848
10.570 54.294 -74.754
11.180 55.186 -78.918
11.820 56.063 -83.268
12.500 56.938 -87.871
13.210 57.794 -92.658
13.970 58.652 -97.762
14.770 59.499 -103.116
15.620 60.340 -108.788
16.510 61.165 -114.714
17.460 61.987 -121.032
18.460 62.796 -127.684
19.510 63.588 -134.679
20.630 64.374 -142.166
21.810 65.142 -150.099
23.060 65.892 -158.568
24.380 66.618 -167.603
25.780 67.313 -177.305
27.260 67.965 172.298
28.820 68.556 161.186
30.470 69.067 149.293
32.220 69.477 136.590
34.060 69.755 123.255
36.010 69.881 109.315
38.080 69.836 94.942
40.260 69.617 80.480
42.560 69.233 66.123
45.000 68.704 51.970
47.580 68.055 38.176
50.310 67.314 24.773
53.190 66.507 11.785
56.230 65.652 -0.848
59.460 64.761 -13.273
62.860 63.851 -25.447
66.460 62.926 -37.520
70.270 61.992 -49.554
74.300 61.052 -61.609
78.550 60.113 -73.713
83.050 59.172 -85.972
87.810 58.233 -98.429
92.840 57.297 -111.124
98.160 56.365 -124.119
103.780 55.440 -137.449
109.730 54.519 -151.196
116.020 53.607 -165.391
122.660 52.705 179.933
129.690 51.813 164.676
137.120 50.932 148.804
144.970 50.065 132.259
153.280 49.212 114.940
162.060 48.374 96.807
171.340 47.551 77.775
181.160 46.743 57.740
191.540 45.950 36.635
202.510 45.169 14.373
214.110 44.397 -9.149
226.380 43.631 -34.033
239.350 42.865 -60.354
253.060 42.094 -88.199
267.560 41.312 -117.664
282.890 40.512 -148.814
299.090 39.687 178.305
316.230 38.832 143.597
334.340 37.945 107.064
353.500 37.025 68.620
373.750 36.077 28.261
395.160 35.109 -14.084
417.800 34.137 -58.510
441.730 33.178 -105.140
467.040 32.250 -154.218
493.800 31.364 153.980
522.090 30.518 99.118
552.000 29.691 40.870
583.620 28.850 -20.976
617.050 27.965 -86.499
652.400 27.022 -155.692
689.780 26.034 131.460
729.290 25.032 54.878
771.080 24.050 -25.789
815.250 23.104 -110.949
861.950 22.172 158.899
911.330 21.211 63.510
963.540 20.206 -37.021
1018.740 19.224 -142.667
1077.110 18.362 105.836
1138.810 17.587 -12.695
1204.050 16.760 -138.568
1273.030 15.872 88.620
1345.960 15.041 -51.338
1423.070 14.329 160.444
1504.590 13.670 2.807
1590.790 12.941 -164.770
1681.920 12.082 17.831
1778.280 11.119 -169.539
1880.150 10.071 -7.165
1987.870 8.978 144.480
2101.750 7.903 -75.382
2222.150 6.860 52.574
2349.460 5.906 166.860
2484.060 4.842 -93.589
2626.360 3.682 -8.010
2776.820 2.666 62.138
2935.900 1.672 114.479
3104.100 0.422 148.444
3281.930 -0.998 165.877
3469.940 -2.227 163.684
3668.730 -3.548 140.377
3878.910 -4.952 95.463
4101.130 -6.325 27.708
4336.070 -7.906 -64.564
4584.480 -9.383 178.157
4847.120 -10.973 33.041
5124.810 -12.550 -139.105
5418.400 -13.952 15.810
5728.810 -15.853 139.964
6057.010 -17.546 -128.540
6404.000 -19.076 -74.636
6770.880 -20.917 -59.281
7158.770 -22.980 -84.576
7568.890 -24.892 -150.274
8002.500 -26.886 97.328
8460.950 -29.214 -61.739
8945.670 -31.577 88.729
9458.160 -34.136 -173.440
10000.000 -36.957 -131.502
