# Freq(Hz) SPL(dB) Phase (degrees)
10.000 52.566 -72.704
10.570 53.454 -76.717
11.180 54.345 -80.993
11.820 55.223 -85.463
12.500 56.097 -90.192
13.210 56.952 -95.110
13.970 57.811 -100.355
14.770 58.656 -105.858
15.620 59.497 -111.688
16.510 60.321 -117.780
17.460 61.143 -124.274
18.460 61.951 -131.112
19.510 62.741 -138.302
20.630 63.526 -145.998
21.810 64.293 -154.149
23.060 65.043 -162.851
24.380 65.767 -172.132
25.780 66.461 177.906
27.260 67.110 167.233
28.820 67.699 155.831
30.470 68.208 143.630
32.220 68.615 130.601
34.060 68.890 116.923
36.010 69.012 102.620
38.080 68.964 87.861
40.260 68.740 72.992
42.560 68.352 58.206
45.000 67.817 43.598
47.580 67.162 29.322
50.310 66.413 15.409
53.190 65.598 1.883
56.230 64.735 -11.317
59.460 63.833 -24.344
62.860 62.911 -37.152
66.460 61.973 -49.895
70.270 61.022 -62.637
74.300 60.065 -75.440
78.550 59.105 -88.329
83.050 58.142 -101.416
87.810 57.176 -114.743
92.840 56.210 -128.351
98.160 55.243 -142.302
103.780 54.278 -156.631
109.730 53.314 -171.418
116.020 52.351 173.307
122.660 51.393 157.517
129.690 50.437 141.113
137.120 49.487 124.070
144.970 48.544 106.336
153.280 47.608 87.817
162.060 46.682 68.484
171.340 45.768 48.262
181.160 44.867 27.050
191.540 43.980 4.792
202.510 43.111 -18.598
214.110 42.259 -43.226
226.380 41.425 -69.205
239.350 40.610 -96.628
253.060 39.812 -125.609
267.560 39.030 -156.286
282.890 38.259 171.228
299.090 37.498 136.822
316.230 36.739 100.327
334.340 35.980 61.660
353.500 35.212 20.637
373.750 34.430 -22.842
395.160 33.626 -68.944
417.800 32.788 -117.833
441.730 31.902 -169.645
467.040 30.945 135.448
493.800 29.889 77.383
522.090 28.704 16.189
552.000 27.370 -47.979
583.620 25.892 -114.826
617.050 24.324 175.943
652.400 22.769 104.376
689.780 21.350 30.033
729.290 20.148 -48.016
771.080 19.149 -130.924
815.250 18.273 140.597
861.950 17.428 46.209
911.330 16.561 -54.114
963.540 15.661 -160.307
1018.740 14.769 87.606
1077.110 13.956 -30.888
1138.810 13.247 -156.738
1204.050 12.562 69.083
1273.030 11.799 -73.802
1345.960 10.879 134.424
1423.070 9.713 -26.177
1504.590 8.279 165.139
1590.790 6.735 -11.136
1681.920 5.300 164.211
1778.280 4.051 -30.316
1880.150 3.011 123.956
1987.870 2.126 -94.485
2101.750 1.306 33.423
2222.150 0.467 146.739
2349.460 -0.560 -115.703
2484.060 -1.892 -32.917
2626.360 -3.499 35.995
2776.820 -5.021 89.849
2935.900 -6.451 127.216
3104.100 -7.474 146.005
3281.930 -8.524 141.369
3469.940 -10.084 116.023
3668.730 -11.819 69.962
3878.910 -13.633 3.043
4101.130 -14.872 -87.469
4336.070 -16.203 150.353
4584.480 -18.349 1.430
4847.120 -20.813 -172.453
5124.810 -22.485 -14.717
5418.400 -24.411 104.030
5728.810 -27.085 -169.562
6057.010 -29.622 -115.727
6404.000 -32.451 -104.286
6770.880 -36.376 -129.637
7158.770 -39.853 163.721
7568.890 -45.018 45.639
8002.500 -52.649 -116.963
8460.950 -70.709 92.108
8945.670 -57.502 -66.318
9458.160 -53.541 -22.033
10000.000 -52.366 -41.582
