# Freq(Hz) SPL(dB) Phase (degrees)
10.000 51.457 -75.457
10.570 52.345 -79.627
11.180 53.236 -84.072
11.820 54.113 -88.717
12.500 54.988 -93.634
13.210 55.843 -98.748
13.970 56.702 -104.203
14.770 57.547 -109.926
15.620 58.389 -115.991
16.510 59.212 -122.328
17.460 60.034 -129.085
18.460 60.842 -136.199
19.510 61.633 -143.679
20.630 62.418 -151.685
21.810 63.185 -160.163
23.060 63.935 -169.211
24.380 64.659 -178.857
25.780 65.353 170.793
27.260 66.003 159.709
28.820 66.591 147.873
30.470 67.101 135.214
32.220 67.508 121.698
34.060 67.783 107.507
36.010 67.906 92.660
38.080 67.857 77.322
40.260 67.634 61.843
42.560 67.246 46.412
45.000 66.711 31.117
47.580 66.056 16.114
50.310 65.307 1.430
53.190 64.491 -12.912
56.230 63.628 -26.977
59.460 62.725 -40.926
62.860 61.802 -54.708
66.460 60.862 -68.485
70.270 59.910 -82.327
74.300 58.949 -96.299
78.550 57.986 -110.427
83.050 57.017 -124.832
87.810 56.044 -139.562
92.840 55.070 -154.661
98.160 54.093 -170.198
103.780 53.114 173.788
109.730 52.131 157.205
116.020 51.146 140.023
122.660 50.160 122.207
129.690 49.170 103.650
137.120 48.177 84.323
144.970 47.182 64.172
153.280 46.181 43.093
162.060 45.177 21.063
171.340 44.168 -1.994
181.160 43.152 -26.175
191.540 42.131 -51.527
202.510 41.104 -78.120
214.110 40.068 -106.045
226.380 39.023 -135.390
239.350 37.969 -166.216
253.060 36.905 161.394
267.560 35.829 127.340
282.890 34.743 91.548
299.090 33.647 53.949
316.230 32.543 14.404
334.340 31.434 -27.129
353.500 30.325 -70.814
373.750 29.223 -116.728
395.160 28.135 -165.028
417.800 27.070 144.115
441.730 26.035 90.535
467.040 25.037 33.986
493.800 24.082 -25.743
522.090 23.176 -88.888
552.000 22.324 -155.723
583.620 21.534 133.439
617.050 20.805 58.215
652.400 20.128 -21.835
689.780 19.477 -107.125
729.290 18.816 162.016
771.080 18.104 65.230
815.250 17.295 -37.621
861.950 16.349 -146.685
911.330 15.232 97.985
963.540 13.922 -23.577
1018.740 12.410 -151.278
1077.110 10.705 75.211
1138.810 8.922 -63.555
1204.050 7.291 152.049
1273.030 6.032 0.343
1345.960 5.108 -161.007
1423.070 4.328 26.583
1504.590 3.505 -156.946
1590.790 2.633 8.659
1681.920 1.813 162.812
1778.280 1.039 -56.018
1880.150 0.178 71.191
1987.870 -0.905 -176.681
2101.750 -2.501 -78.946
2222.150 -4.675 6.012
2349.460 -7.107 80.821
2484.060 -8.832 144.587
2626.360 -9.461 -171.935
2776.820 -10.164 -154.016
2935.900 -11.738 -157.776
3104.100 -13.859 -178.769
3281.930 -15.805 140.809
3469.940 -17.824 75.143
3668.730 -20.402 -10.955
3878.910 -22.406 -119.079
4101.130 -24.338 98.813
4336.070 -27.688 -67.133
4584.480 -29.259 104.105
4847.120 -31.316 -132.741
5124.810 -35.816 -32.042
5418.400 -39.551 39.227
5728.810 -39.876 68.603
6057.010 -43.076 52.930
6404.000 -46.314 7.751
6770.880 -46.867 -90.794
7158.770 -54.856 124.815
7568.890 -57.921 -79.937
8002.500 -70.721 79.671
8460.950 -66.294 169.634
8945.670 -67.659 -136.637
9458.160 -62.521 161.944
10000.000 -62.028 29.835
