# Freq(Hz) SPL(dB) Phase (degrees)
10.000 53.154 -71.386
10.570 54.041 -75.323
11.180 54.933 -79.520
11.820 55.810 -83.905
12.500 56.685 -88.544
13.210 57.541 -93.369
13.970 58.399 -98.514
14.770 59.245 -103.911
15.620 60.087 -109.629
16.510 60.911 -115.603
17.460 61.733 -121.972
18.460 62.541 -128.678
19.510 63.332 -135.729
20.630 64.118 -143.277
21.810 64.886 -151.273
23.060 65.636 -159.810
24.380 66.360 -168.916
25.780 67.055 -178.693
27.260 67.706 170.830
28.820 68.296 159.634
30.470 68.806 147.652
32.220 69.215 134.855
34.060 69.492 121.421
36.010 69.616 107.376
38.080 69.569 92.892
40.260 69.348 78.312
42.560 68.963 63.832
45.000 68.431 49.547
47.580 67.779 35.615
50.310 67.035 22.066
53.190 66.224 8.923
56.230 65.366 -3.872
59.460 64.470 -16.469
62.860 63.555 -28.824
66.460 62.625 -41.087
70.270 61.683 -53.322
74.300 60.736 -65.589
78.550 59.789 -77.914
83.050 58.838 -90.404
87.810 57.888 -103.103
92.840 56.940 -116.050
98.160 55.994 -129.307
103.780 55.052 -142.908
109.730 54.114 -156.933
116.020 53.182 -171.413
122.660 52.258 173.621
129.690 51.341 158.073
137.120 50.433 141.910
144.970 49.538 125.078
153.280 48.653 107.480
162.060 47.782 89.079
171.340 46.926 69.796
181.160 46.083 49.528
191.540 45.256 28.211
202.510 44.443 5.764
214.110 43.642 -17.920
226.380 42.851 -42.940
239.350 42.067 -69.374
253.060 41.286 -97.313
267.560 40.502 -126.860
282.890 39.712 -158.086
299.090 38.910 168.950
316.230 38.093 134.141
334.340 37.259 97.473
353.500 36.408 58.839
373.750 35.547 18.219
395.160 34.683 -24.480
417.800 33.832 -69.372
441.730 33.012 -116.597
467.040 32.238 -166.425
493.800 31.523 140.841
522.090 30.862 84.833
552.000 30.229 25.196
583.620 29.586 -38.300
617.050 28.896 -105.736
652.400 28.140 -177.099
689.780 27.325 107.635
729.290 26.471 28.438
771.080 25.610 -54.916
815.250 24.773 -142.649
861.950 23.988 124.822
911.330 23.275 26.997
963.540 22.644 -76.691
1018.740 22.087 173.062
1077.110 21.549 55.430
1138.810 20.901 -70.030
1204.050 20.019 157.000
1273.030 18.933 17.208
1345.960 17.767 -129.482
1423.070 16.572 76.124
1504.590 15.324 -86.347
1590.790 14.088 103.012
1681.920 12.991 -76.593
1778.280 12.086 93.441
1880.150 11.340 -108.571
1987.870 10.547 36.301
2101.750 9.598 168.040
2222.150 8.446 -73.652
2349.460 7.019 31.122
2484.060 5.339 122.928
2626.360 3.624 -158.467
2776.820 1.995 -94.727
2935.900 0.501 -46.901
3104.100 -0.851 -17.361
3281.930 -2.157 -5.988
3469.940 -3.171 -15.462
3668.730 -4.241 -48.558
3878.910 -5.699 -104.611
4101.130 -7.430 177.574
4336.070 -8.895 78.861
4584.480 -9.703 -48.955
4847.120 -10.762 151.844
5124.810 -12.237 -36.706
5418.400 -13.738 104.953
5728.810 -15.228 -146.823
6057.010 -16.731 -73.028
6404.000 -18.248 -37.013
6770.880 -19.959 -39.447
7158.770 -21.627 -82.763
7568.890 -23.346 -170.466
8002.500 -25.130 55.829
8460.950 -27.006 -126.798
8945.670 -29.038 -0.401
9458.160 -31.072 70.998
10000.000 -33.068 84.707
