# Freq(Hz) SPL(dB) Phase (degrees)
10.000 51.028 -76.626
10.570 51.915 -80.863
11.180 52.807 -85.379
11.820 53.685 -90.099
12.500 54.559 -95.096
13.210 55.415 -100.293
13.970 56.274 -105.837
14.770 57.120 -111.654
15.620 57.962 -117.818
16.510 58.786 -124.259
17.460 59.609 -131.128
18.460 60.417 -138.358
19.510 61.209 -145.962
20.630 61.995 -154.099
21.810 62.763 -162.716
23.060 63.514 -171.910
24.380 64.239 178.288
25.780 64.935 167.774
27.260 65.586 156.516
28.820 66.177 144.497
30.470 66.688 131.644
32.220 67.098 117.922
34.060 67.375 103.514
36.010 67.500 88.436
38.080 67.455 72.854
40.260 67.235 57.117
42.560 66.851 41.413
45.000 66.320 25.829
47.580 65.670 10.520
50.310 64.926 -4.490
53.190 64.117 -19.176
56.230 63.259 -33.604
59.460 62.364 -47.940
62.860 61.450 -62.131
66.460 60.519 -76.342
70.270 59.576 -90.646
74.300 58.627 -105.108
78.550 57.677 -119.755
83.050 56.722 -134.713
87.810 55.765 -150.030
92.840 54.808 -165.753
98.160 53.850 178.044
103.780 52.893 161.322
109.730 51.934 143.984
116.020 50.976 125.995
122.660 50.019 107.321
129.690 49.062 87.843
137.120 48.105 67.531
144.970 47.149 46.325
153.280 46.192 24.115
162.060 45.236 0.868
171.340 44.280 -23.498
181.160 43.323 -49.093
191.540 42.365 -75.971
202.510 41.406 -104.215
214.110 40.444 -133.931
226.380 39.479 -165.224
239.350 38.509 161.829
253.060 37.533 127.127
267.560 36.549 90.546
282.890 35.555 51.992
299.090 34.550 11.374
316.230 33.532 -31.472
334.340 32.502 -76.607
353.500 31.458 -124.216
373.750 30.401 -174.387
395.160 29.332 132.713
417.800 28.252 76.909
441.730 27.159 18.045
467.040 26.050 -44.113
493.800 24.920 -109.738
522.090 23.757 -178.999
552.000 22.553 107.963
583.620 21.304 31.062
617.050 20.018 -49.788
652.400 18.719 -134.726
689.780 17.438 136.024
729.290 16.209 42.159
771.080 15.061 -56.824
815.250 14.016 -161.392
861.950 13.084 87.792
911.330 12.256 -29.994
963.540 11.494 -155.484
1018.740 10.734 70.688
1077.110 9.875 -71.987
1138.810 8.812 136.500
1204.050 7.522 -23.519
1273.030 6.046 168.067
1345.960 4.457 -9.196
1423.070 2.740 164.006
1504.590 0.866 -32.624
1590.790 -1.173 120.972
1681.920 -3.292 -94.792
1778.280 -5.206 40.010
1880.150 -6.578 162.739
1987.870 -7.400 -89.914
2101.750 -8.062 -0.622
2222.150 -8.775 69.975
2349.460 -9.859 121.524
2484.060 -11.415 154.587
2626.360 -13.514 169.729
2776.820 -16.137 168.268
2935.900 -18.776 151.041
3104.100 -20.830 115.630
3281.930 -22.004 54.676
3469.940 -22.968 -35.027
3668.730 -24.607 -155.694
3878.910 -26.527 52.363
4101.130 -28.988 -130.212
4336.070 -32.536 13.069
4584.480 -37.052 125.937
4847.120 -39.601 -153.564
5124.810 -40.939 -114.945
5418.400 -41.386 -113.540
5728.810 -43.061 -172.960
6057.010 -45.969 111.561
6404.000 -46.851 9.284
6770.880 -48.766 -154.692
7158.770 -55.457 23.003
7568.890 -55.184 107.991
8002.500 -63.699 171.312
8460.950 -70.664 -164.786
8945.670 -67.674 -155.775
9458.160 -65.314 80.026
10000.000 -62.779 -164.032
