# Freq(Hz) SPL(dB) Phase (degrees)
10.000 50.997 -76.713
10.570 51.884 -80.954
11.180 52.776 -85.476
11.820 53.654 -90.202
12.500 54.528 -95.204
13.210 55.384 -100.407
13.970 56.243 -105.958
14.770 57.089 -111.782
15.620 57.931 -117.953
16.510 58.756 -124.402
17.460 59.578 -131.279
18.460 60.387 -138.518
19.510 61.179 -146.131
20.630 61.965 -154.277
21.810 62.733 -162.904
23.060 63.483 -172.110
24.380 64.209 178.077
25.780 64.905 167.551
27.260 65.556 156.280
28.820 66.147 144.248
30.470 66.658 131.380
32.220 67.068 117.643
34.060 67.346 103.219
36.010 67.471 88.124
38.080 67.426 72.524
40.260 67.206 56.768
42.560 66.822 41.044
45.000 66.292 25.439
47.580 65.642 10.107
50.310 64.899 -4.926
53.190 64.090 -19.637
56.230 63.233 -34.092
59.460 62.338 -48.456
62.860 61.424 -62.676
66.460 60.494 -76.920
70.270 59.552 -91.257
74.300 58.604 -105.754
78.550 57.654 -120.438
83.050 56.701 -135.435
87.810 55.745 -150.795
92.840 54.789 -166.562
98.160 53.833 177.189
103.780 52.877 160.417
109.730 51.921 143.026
116.020 50.964 124.981
122.660 50.010 106.248
129.690 49.055 86.708
137.120 48.101 66.329
144.970 47.148 45.054
153.280 46.195 22.768
162.060 45.243 -0.557
171.340 44.292 -25.007
181.160 43.340 -50.691
191.540 42.388 -77.663
202.510 41.435 -106.008
214.110 40.481 -135.831
226.380 39.525 -167.237
239.350 38.565 159.694
253.060 37.600 124.862
267.560 36.629 88.141
282.890 35.651 49.434
299.090 34.664 8.648
316.230 33.668 -34.384
334.340 32.662 -79.728
353.500 31.645 -127.575
373.750 30.620 -178.023
395.160 29.587 128.751
417.800 28.546 72.560
441.730 27.495 13.233
467.040 26.428 -49.479
493.800 25.335 -115.760
522.090 24.203 174.218
552.000 23.017 100.323
583.620 21.769 22.495
617.050 20.464 -59.314
652.400 19.126 -145.204
689.780 17.788 124.639
729.290 16.486 29.947
771.080 15.253 -69.744
815.250 14.118 -174.846
861.950 13.106 74.025
911.330 12.230 -43.869
963.540 11.478 -169.381
1018.740 10.790 56.643
1077.110 10.061 -86.525
1138.810 9.159 120.965
1204.050 8.027 -40.604
1273.030 6.683 148.962
1345.960 5.189 -30.679
1423.070 3.539 139.835
1504.590 1.713 -59.843
1590.790 -0.301 90.074
1681.920 -2.484 -130.364
1778.280 -4.721 -0.970
1880.150 -6.694 117.425
1987.870 -8.197 -137.722
2101.750 -9.288 -49.613
2222.150 -10.140 19.351
2349.460 -11.109 66.827
2484.060 -12.563 92.359
2626.360 -14.743 96.201
2776.820 -17.730 78.294
2935.900 -21.518 38.274
3104.100 -26.231 -24.423
3281.930 -31.643 -100.520
3469.940 -33.455 170.603
3668.730 -31.281 45.182
3878.910 -28.517 -118.317
4101.130 -28.065 41.068
4336.070 -28.863 177.959
4584.480 -30.876 -69.220
4847.120 -32.698 22.292
5124.810 -33.283 76.649
5418.400 -33.955 79.333
5728.810 -36.753 43.187
6057.010 -40.812 -25.666
6404.000 -43.792 -135.662
6770.880 -47.212 58.821
7158.770 -53.280 -159.688
7568.890 -62.690 -60.245
8002.500 -77.892 -70.586
8460.950 -83.318 151.092
8945.670 -78.457 176.430
9458.160 -79.362 46.049
10000.000 -70.880 151.520
