# Freq(Hz) SPL(dB) Phase (degrees)
10.000 53.359 -70.947
10.570 54.246 -74.859
11.180 55.138 -79.029
11.820 56.016 -83.386
12.500 56.890 -87.995
13.210 57.746 -92.789
13.970 58.605 -97.901
14.770 59.451 -103.263
15.620 60.293 -108.943
16.510 61.117 -114.878
17.460 61.939 -121.206
18.460 62.748 -127.867
19.510 63.540 -134.873
20.630 64.325 -142.371
21.810 65.093 -150.315
23.060 65.844 -158.797
24.380 66.569 -167.845
25.780 67.264 -177.560
27.260 67.916 172.027
28.820 68.506 160.900
30.470 69.018 148.990
32.220 69.427 136.270
34.060 69.705 122.917
36.010 69.830 108.958
38.080 69.784 94.565
40.260 69.565 80.081
42.560 69.181 65.702
45.000 68.650 51.524
47.580 68.001 37.705
50.310 67.259 24.275
53.190 66.450 11.259
56.230 65.595 -1.403
59.460 64.702 -13.859
62.860 63.791 -26.066
66.460 62.865 -38.173
70.270 61.928 -50.243
74.300 60.986 -62.336
78.550 60.044 -74.479
83.050 59.101 -86.778
87.810 58.158 -99.277
92.840 57.219 -112.015
98.160 56.283 -125.054
103.780 55.352 -138.429
109.730 54.427 -152.220
116.020 53.508 -166.459
122.660 52.600 178.823
129.690 51.699 163.525
137.120 50.810 147.616
144.970 49.935 131.040
153.280 49.071 113.695
162.060 48.222 95.546
171.340 47.388 76.509
181.160 46.568 56.480
191.540 45.762 35.398
202.510 44.969 13.178
214.110 44.185 -10.280
226.380 43.408 -35.076
239.350 42.633 -61.279
253.060 41.855 -88.972
267.560 41.069 -118.248
282.890 40.270 -149.165
299.090 39.453 178.233
316.230 38.615 143.859
334.340 37.757 107.715
353.500 36.883 69.714
373.750 36.004 29.841
395.160 35.135 -12.000
417.800 34.298 -55.958
441.730 33.516 -102.243
467.040 32.805 -151.221
493.800 32.164 156.711
522.090 31.568 101.145
552.000 30.967 41.777
583.620 30.309 -21.480
617.050 29.553 -88.523
652.400 28.696 -159.171
689.780 27.769 126.705
729.290 26.831 49.065
771.080 25.942 -32.491
815.250 25.139 -118.496
861.950 24.419 150.364
911.330 23.748 53.565
963.540 23.098 -49.234
1018.740 22.459 -158.465
1077.110 21.790 85.184
1138.810 20.964 -38.622
1204.050 19.878 -169.377
1273.030 18.597 53.626
1345.960 17.256 -89.841
1423.070 15.887 119.583
1504.590 14.532 -38.064
1590.790 13.408 156.691
1681.920 12.644 -18.358
1778.280 12.086 154.581
1880.150 11.492 -45.160
1987.870 10.763 102.371
2101.750 9.774 -123.299
2222.150 8.376 -1.322
2349.460 6.714 109.542
2484.060 5.150 -151.033
2626.360 3.879 -65.651
2776.820 2.863 3.272
2935.900 1.866 53.958
3104.100 0.784 86.814
3281.930 -0.246 100.083
3469.940 -1.386 92.118
3668.730 -3.186 61.318
3878.910 -5.788 15.560
4101.130 -7.109 -46.558
4336.070 -7.547 -141.107
4584.480 -8.920 94.178
4847.120 -10.689 -52.014
5124.810 -11.635 133.163
5418.400 -12.598 -75.258
5728.810 -13.656 42.997
6057.010 -14.850 125.524
6404.000 -16.329 173.035
6770.880 -17.585 -178.152
7158.770 -19.016 150.657
7568.890 -20.481 76.294
8002.500 -22.062 -43.896
8460.950 -23.603 148.792
8945.670 -25.145 -69.630
9458.160 -26.598 18.691
10000.000 -28.354 48.418
