# Freq(Hz) SPL(dB) Phase (degrees)
10.000 52.348 -73.217
10.570 53.236 -77.259
11.180 54.127 -81.567
11.820 55.004 -86.069
12.500 55.878 -90.833
13.210 56.734 -95.788
13.970 57.592 -101.072
14.770 58.438 -106.616
15.620 59.279 -112.490
16.510 60.102 -118.627
17.460 60.924 -125.171
18.460 61.732 -132.060
19.510 62.522 -139.304
20.630 63.307 -147.057
21.810 64.074 -155.270
23.060 64.823 -164.036
24.380 65.547 -173.385
25.780 66.241 176.581
27.260 66.890 165.832
28.820 67.478 154.348
30.470 67.987 142.062
32.220 68.394 128.943
34.060 68.668 115.170
36.010 68.790 100.765
38.080 68.741 85.899
40.260 68.517 70.916
42.560 68.128 56.011
45.000 67.592 41.275
47.580 66.936 26.864
50.310 66.186 12.808
53.190 65.369 -0.869
56.230 64.505 -14.229
59.460 63.601 -27.426
62.860 62.678 -40.414
66.460 61.737 -53.348
70.270 60.784 -66.292
74.300 59.823 -79.309
78.550 58.860 -92.425
83.050 57.892 -105.752
87.810 56.921 -119.334
92.840 55.949 -133.211
98.160 54.976 -147.447
103.780 54.003 -162.076
109.730 53.029 -177.181
116.020 52.055 167.210
122.660 51.084 151.070
129.690 50.114 134.300
137.120 49.146 116.874
144.970 48.183 98.745
153.280 47.223 79.819
162.060 46.271 60.069
171.340 45.327 39.425
181.160 44.391 17.791
191.540 43.468 -4.886
202.510 42.559 -28.683
214.110 41.665 -53.702
226.380 40.788 -80.049
239.350 39.930 -107.814
253.060 39.092 -137.108
267.560 38.273 -168.070
282.890 37.474 159.184
299.090 36.692 124.533
316.230 35.924 87.797
334.340 35.167 48.878
353.500 34.418 7.573
373.750 33.670 -36.239
395.160 32.917 -82.747
417.800 32.148 -132.145
441.730 31.349 175.402
467.040 30.497 119.679
493.800 29.564 60.571
522.090 28.517 -1.971
552.000 27.325 -67.883
583.620 25.976 -136.968
617.050 24.485 151.022
652.400 22.907 76.262
689.780 21.329 -1.285
729.290 19.845 -81.955
771.080 18.528 -166.495
815.250 17.408 104.272
861.950 16.467 9.415
911.330 15.639 -91.849
963.540 14.827 159.992
1018.740 13.936 44.920
1077.110 12.927 -76.755
1138.810 11.870 155.351
1204.050 10.919 20.792
1273.030 10.169 -121.940
1345.960 9.510 85.376
1423.070 8.675 -77.943
1504.590 7.461 109.085
1590.790 5.921 -72.125
1681.920 4.322 98.919
1778.280 2.937 -99.061
1880.150 1.892 51.578
1987.870 1.000 -171.869
2101.750 -0.092 -49.464
2222.150 -1.391 59.831
2349.460 -2.685 155.772
2484.060 -3.815 -122.674
2626.360 -4.987 -59.622
2776.820 -6.563 -12.470
2935.900 -7.882 18.954
3104.100 -9.109 28.796
3281.930 -10.745 19.187
3469.940 -12.253 -10.519
3668.730 -14.001 -63.205
3878.910 -15.736 -136.233
4101.130 -16.829 124.260
4336.070 -18.425 -6.741
4584.480 -20.663 -163.837
4847.120 -23.268 14.292
5124.810 -24.814 162.726
5418.400 -26.852 -88.216
5728.810 -29.618 -12.855
6057.010 -32.374 31.148
6404.000 -35.117 30.216
6770.880 -39.307 -7.316
7158.770 -42.990 -85.587
7568.890 -48.542 144.527
8002.500 -54.879 -16.022
8460.950 -65.779 -158.821
8945.670 -57.582 -31.652
9458.160 -55.746 -7.002
10000.000 -54.124 -45.913
