# Freq(Hz) SPL(dB) Phase (degrees)
10.000 52.237 -73.483
10.570 53.125 -77.540
11.180 54.016 -81.865
11.820 54.893 -86.384
12.500 55.767 -91.166
13.210 56.623 -96.140
13.970 57.481 -101.445
14.770 58.327 -107.010
15.620 59.168 -112.906
16.510 59.991 -119.067
17.460 60.813 -125.636
18.460 61.620 -132.552
19.510 62.411 -139.824
20.630 63.196 -147.608
21.810 63.962 -155.852
23.060 64.711 -164.652
24.380 65.435 -174.036
25.780 66.129 175.892
27.260 66.778 165.103
28.820 67.366 153.577
30.470 67.875 141.247
32.220 68.281 128.080
34.060 68.556 114.257
36.010 68.677 99.799
38.080 68.628 84.876
40.260 68.403 69.834
42.560 68.014 54.865
45.000 67.477 40.062
47.580 66.821 25.580
50.310 66.071 11.448
53.190 65.253 -2.309
56.230 64.388 -15.754
59.460 63.483 -29.043
62.860 62.559 -42.128
66.460 61.616 -55.164
70.270 60.662 -68.217
74.300 59.699 -81.351
78.550 58.734 -94.591
83.050 57.763 -108.050
87.810 56.789 -121.773
92.840 55.814 -135.800
98.160 54.836 -150.196
103.780 53.858 -164.995
109.730 52.877 179.719
116.020 51.896 163.918
122.660 50.915 147.575
129.690 49.933 130.589
137.120 48.952 112.937
144.970 47.973 94.571
153.280 46.994 75.398
162.060 46.018 55.396
171.340 45.046 34.495
181.160 44.078 12.605
191.540 43.117 -10.319
202.510 42.164 -34.347
214.110 41.220 -59.571
226.380 40.288 -86.084
239.350 39.369 -113.959
253.060 38.467 -143.295
267.560 37.583 -174.215
282.890 36.720 153.177
299.090 35.881 118.768
316.230 35.066 82.374
334.340 34.279 43.889
353.500 33.517 3.088
373.750 32.780 -40.177
395.160 32.062 -86.122
417.800 31.352 -134.967
441.730 30.636 173.105
467.040 29.890 117.874
493.800 29.089 59.225
522.090 28.203 -2.893
552.000 27.209 -68.436
583.620 26.104 -137.259
617.050 24.910 150.791
652.400 23.683 75.749
689.780 22.499 -2.582
729.290 21.432 -84.667
771.080 20.518 -171.311
815.250 19.751 96.750
861.950 19.089 -1.182
911.330 18.478 -105.608
963.540 17.861 143.078
1018.740 17.175 24.602
1077.110 16.355 -101.131
1138.810 15.369 126.165
1204.050 14.271 -13.281
1273.030 13.182 -159.729
1345.960 12.185 45.719
1423.070 11.219 -118.080
1504.590 10.196 68.610
1590.790 9.145 -114.305
1681.920 8.118 52.293
1778.280 7.048 -152.486
1880.150 5.888 -8.866
1987.870 4.646 122.788
2101.750 3.389 -117.662
2222.150 2.238 -11.737
2349.460 1.020 79.212
2484.060 -0.188 155.974
2626.360 -1.184 -143.491
2776.820 -2.142 -101.900
2935.900 -3.355 -79.019
3104.100 -4.644 -73.834
3281.930 -5.699 -89.235
3469.940 -6.902 -127.577
3668.730 -8.212 172.103
3878.910 -9.471 87.776
4101.130 -10.735 -23.497
4336.070 -12.364 -161.749
4584.480 -14.008 32.753
4847.120 -15.718 -163.490
5124.810 -17.604 -32.011
5418.400 -19.826 65.783
5728.810 -22.340 130.124
6057.010 -24.868 156.916
6404.000 -27.584 145.213
6770.880 -30.465 90.997
7158.770 -33.880 -6.282
7568.890 -37.744 -155.205
8002.500 -43.526 6.551
8460.950 -53.829 109.527
8945.670 -61.845 12.766
9458.160 -51.765 -1.300
10000.000 -48.619 -66.822
