# Freq(Hz) SPL(dB) Phase (degrees)
10.000 51.451 -75.473
10.570 52.339 -79.643
11.180 53.230 -84.089
11.820 54.108 -88.736
12.500 54.982 -93.654
13.210 55.838 -98.769
13.970 56.696 -104.225
14.770 57.542 -109.950
15.620 58.383 -116.016
16.510 59.207 -122.354
17.460 60.029 -129.113
18.460 60.837 -136.228
19.510 61.628 -143.710
20.630 62.413 -151.717
21.810 63.180 -160.197
23.060 63.930 -169.247
24.380 64.654 -178.896
25.780 65.348 170.752
27.260 65.999 159.666
28.820 66.587 147.827
30.470 67.097 135.165
32.220 67.505 121.646
34.060 67.780 107.452
36.010 67.903 92.602
38.080 67.855 77.260
40.260 67.632 61.777
42.560 67.244 46.341
45.000 66.709 31.042
47.580 66.055 16.035
50.310 65.307 1.345
53.190 64.492 -13.003
56.230 63.629 -27.073
59.460 62.727 -41.028
62.860 61.805 -54.817
66.460 60.866 -68.602
70.270 59.915 -82.453
74.300 58.956 -96.434
78.550 57.994 -110.572
83.050 57.026 -124.989
87.810 56.055 -139.731
92.840 55.083 -154.844
98.160 54.107 -170.396
103.780 53.131 173.572
109.730 52.151 156.971
116.020 51.168 139.766
122.660 50.185 121.927
129.690 49.198 103.342
137.120 48.209 83.983
144.970 47.216 63.797
153.280 46.219 42.678
162.060 45.218 20.602
171.340 44.212 -2.507
181.160 43.200 -26.748
191.540 42.181 -52.166
202.510 41.155 -78.833
214.110 40.119 -106.840
226.380 39.072 -136.272
239.350 38.012 -167.188
253.060 36.939 160.337
267.560 35.849 126.209
282.890 34.744 90.372
299.090 33.624 52.775
316.230 32.491 13.309
334.340 31.353 -28.038
353.500 30.219 -71.396
373.750 29.108 -116.816
395.160 28.040 -164.461
417.800 27.042 145.447
441.730 26.137 92.611
467.040 25.340 36.578
493.800 24.645 -23.113
522.090 24.022 -86.915
552.000 23.424 -155.168
583.620 22.801 131.968
617.050 22.119 54.454
652.400 21.366 -27.729
689.780 20.552 -114.670
729.290 19.687 153.455
771.080 18.776 56.274
815.250 17.808 -46.465
861.950 16.765 -155.052
911.330 15.633 90.314
963.540 14.414 -30.533
1018.740 13.114 -157.852
1077.110 11.731 68.105
1138.810 10.276 -72.707
1204.050 8.813 139.524
1273.030 7.453 -15.763
1345.960 6.258 -179.827
1423.070 5.162 5.977
1504.590 4.023 -178.939
1590.790 2.780 -14.542
1681.920 1.446 139.364
1778.280 0.177 -77.291
1880.150 -0.794 53.743
1987.870 -1.578 169.280
2101.750 -2.567 -91.647
2222.150 -3.981 -8.252
2349.460 -5.904 60.540
2484.060 -8.050 116.624
2626.360 -9.937 159.781
2776.820 -10.944 -175.394
2935.900 -11.701 -175.698
3104.100 -13.065 160.305
3281.930 -15.133 116.042
3469.940 -17.313 53.822
3668.730 -18.853 -31.116
3878.910 -20.143 -144.484
4101.130 -21.464 73.159
4336.070 -22.921 -99.843
4584.480 -25.194 53.533
4847.120 -28.077 -178.208
5124.810 -29.837 -82.686
5418.400 -32.636 -31.018
5728.810 -36.350 -5.056
6057.010 -38.953 -21.448
6404.000 -41.871 -88.392
6770.880 -46.074 167.351
7158.770 -48.964 20.411
7568.890 -54.471 172.777
8002.500 -63.781 -78.506
8460.950 -72.438 -54.723
8945.670 -71.317 134.905
9458.160 -64.629 33.184
10000.000 -71.606 -134.518
