# Freq(Hz) SPL(dB) Phase (degrees)
10.000 51.304 -75.868
10.570 52.191 -80.061
11.180 53.083 -84.531
11.820 53.960 -89.203
12.500 54.835 -94.148
13.210 55.690 -99.291
13.970 56.549 -104.778
14.770 57.395 -110.534
15.620 58.236 -116.634
16.510 59.060 -123.007
17.460 59.882 -129.804
18.460 60.690 -136.958
19.510 61.482 -144.482
20.630 62.267 -152.534
21.810 63.035 -161.061
23.060 63.784 -170.161
24.380 64.509 -179.862
25.780 65.204 169.730
27.260 65.854 158.586
28.820 66.443 146.685
30.470 66.954 133.957
32.220 67.362 120.369
34.060 67.638 106.101
36.010 67.761 91.172
38.080 67.714 75.748
40.260 67.492 60.177
42.560 67.105 44.650
45.000 66.572 29.252
47.580 65.918 14.141
50.310 65.172 -0.659
53.190 64.358 -15.123
56.230 63.497 -29.317
59.460 62.597 -43.404
62.860 61.677 -57.331
66.460 60.740 -71.264
70.270 59.792 -85.272
74.300 58.835 -99.419
78.550 57.876 -113.734
83.050 56.913 -128.339
87.810 55.946 -143.281
92.840 54.977 -158.606
98.160 54.007 -174.386
103.780 53.035 169.341
109.730 52.061 152.481
116.020 51.086 135.001
122.660 50.110 116.868
129.690 49.130 97.967
137.120 48.149 78.271
144.970 47.166 57.722
153.280 46.179 36.213
162.060 45.189 13.718
171.340 44.195 -9.844
181.160 43.196 -34.574
191.540 42.191 -60.523
202.510 41.179 -87.766
214.110 40.159 -116.400
226.380 39.127 -146.518
239.350 38.083 -178.187
253.060 37.024 148.509
267.560 35.948 113.467
282.890 34.851 76.616
299.090 33.734 37.895
316.230 32.593 -2.819
334.340 31.433 -45.542
353.500 30.254 -90.403
373.750 29.065 -137.429
395.160 27.880 173.273
417.800 26.715 121.577
441.730 25.595 67.330
467.040 24.545 10.232
493.800 23.585 -50.061
522.090 22.720 -113.985
552.000 21.932 178.012
583.620 21.188 105.586
617.050 20.456 28.520
652.400 19.717 -53.340
689.780 18.968 -140.157
729.290 18.214 127.849
771.080 17.453 30.268
815.250 16.671 -73.202
861.950 15.844 177.092
911.330 14.947 60.892
963.540 13.969 -61.997
1018.740 12.909 168.165
1077.110 11.752 31.095
1138.810 10.493 -113.296
1204.050 9.169 94.775
1273.030 7.846 -65.025
1345.960 6.581 126.476
1423.070 5.375 -51.713
1504.590 4.174 119.582
1590.790 2.945 -80.278
1681.920 1.603 67.950
1778.280 0.000 -155.718
1880.150 -1.826 -30.103
1987.870 -3.585 84.871
2101.750 -4.860 -172.416
2222.150 -5.596 -86.517
2349.460 -6.271 -20.391
2484.060 -7.301 26.471
2626.360 -8.885 55.181
2776.820 -10.902 67.896
2935.900 -12.791 64.546
3104.100 -14.180 40.710
3281.930 -15.446 -7.651
3469.940 -17.062 -80.464
3668.730 -18.666 -175.769
3878.910 -19.827 61.990
4101.130 -21.252 -94.121
4336.070 -24.168 81.666
4584.480 -26.925 -120.169
4847.120 -27.599 -0.256
5124.810 -29.677 74.301
5418.400 -32.412 120.287
5728.810 -35.058 125.280
6057.010 -39.077 93.939
6404.000 -41.330 22.939
6770.880 -44.128 -102.261
7158.770 -49.230 94.218
7568.890 -53.495 -119.514
8002.500 -61.324 -37.713
8460.950 -69.255 22.248
8945.670 -68.703 95.734
9458.160 -65.592 10.990
10000.000 -63.749 -132.475
