# Freq(Hz) SPL(dB) Phase (degrees)
10.000 52.567 -72.702
10.570 53.455 -76.714
11.180 54.346 -80.991
11.820 55.223 -85.460
12.500 56.097 -90.189
13.210 56.953 -95.108
13.970 57.811 -100.353
14.770 58.657 -105.855
15.620 59.498 -111.685
16.510 60.322 -117.777
17.460 61.143 -124.271
18.460 61.951 -131.108
19.510 62.742 -138.298
20.630 63.527 -145.994
21.810 64.294 -154.146
23.060 65.043 -162.847
24.380 65.767 -172.128
25.780 66.460 177.910
27.260 67.110 167.238
28.820 67.698 155.835
30.470 68.208 143.635
32.220 68.614 130.606
34.060 68.889 116.928
36.010 69.011 102.625
38.080 68.962 87.866
40.260 68.738 72.997
42.560 68.350 58.211
45.000 67.814 43.602
47.580 67.159 29.326
50.310 66.410 15.413
53.190 65.594 1.886
56.230 64.730 -11.315
59.460 63.828 -24.343
62.860 62.905 -37.153
66.460 61.966 -49.897
70.270 61.014 -62.641
74.300 60.056 -75.446
78.550 59.094 -88.337
83.050 58.129 -101.427
87.810 57.161 -114.758
92.840 56.192 -128.369
98.160 55.223 -142.325
103.780 54.255 -156.658
109.730 53.286 -171.450
116.020 52.318 173.271
122.660 51.355 157.476
129.690 50.392 141.069
137.120 49.434 124.023
144.970 48.481 106.290
153.280 47.534 87.776
162.060 46.594 68.453
171.340 45.664 48.251
181.160 44.744 27.072
191.540 43.836 4.863
202.510 42.941 -18.453
214.110 42.061 -42.978
226.380 41.197 -68.814
239.350 40.348 -96.044
253.060 39.515 -124.775
267.560 38.697 -155.132
282.890 37.892 172.781
299.090 37.100 138.860
316.230 36.316 102.942
334.340 35.538 64.950
353.500 34.763 24.701
373.750 33.987 -17.898
395.160 33.204 -63.002
417.800 32.408 -110.760
441.730 31.589 -161.282
467.040 30.737 145.282
493.800 29.843 88.871
522.090 28.901 29.454
552.000 27.919 -32.978
583.620 26.921 -98.451
617.050 25.950 -167.115
652.400 25.051 120.669
689.780 24.251 44.359
729.290 23.544 -36.629
771.080 22.892 -122.882
815.250 22.239 145.327
861.950 21.542 47.824
911.330 20.778 -55.451
963.540 19.945 -164.571
1018.740 19.058 80.375
1077.110 18.154 -40.796
1138.810 17.303 -168.441
1204.050 16.553 56.443
1273.030 15.859 -87.223
1345.960 15.090 119.927
1423.070 14.131 -41.956
1504.590 13.000 147.733
1590.790 11.844 -31.169
1681.920 10.746 140.289
1778.280 9.710 -58.905
1880.150 8.719 90.348
1987.870 7.687 -132.916
2101.750 6.604 -8.636
2222.150 5.520 102.430
2349.460 4.459 -160.671
2484.060 3.412 -79.064
2626.360 2.319 -13.446
2776.820 1.243 35.382
2935.900 0.116 65.789
3104.100 -1.157 77.749
3281.930 -2.352 70.501
3469.940 -3.555 41.197
3668.730 -4.944 -9.985
3878.910 -6.251 -84.236
4101.130 -7.609 175.935
4336.070 -9.069 49.812
4584.480 -10.537 -104.360
4847.120 -12.223 70.910
5124.810 -14.216 -144.681
5418.400 -16.480 -31.640
5728.810 -18.940 47.018
6057.010 -21.451 91.127
6404.000 -24.065 97.308
6770.880 -26.723 62.192
7158.770 -29.669 -17.035
7568.890 -32.860 -140.205
8002.500 -36.580 47.746
8460.950 -40.983 -174.173
8945.670 -46.199 -89.040
9458.160 -54.414 -58.272
10000.000 -72.219 97.731
