# Freq(Hz) SPL(dB) Phase (degrees)
10.000 51.623 -75.023
10.570 52.510 -79.168
11.180 53.402 -83.586
11.820 54.279 -88.204
12.500 55.153 -93.091
13.210 56.009 -98.174
13.970 56.867 -103.596
14.770 57.713 -109.285
15.620 58.554 -115.313
16.510 59.378 -121.611
17.460 60.199 -128.327
18.460 61.007 -135.397
19.510 61.798 -142.832
20.630 62.583 -150.788
21.810 63.350 -159.215
23.060 64.099 -168.208
24.380 64.823 -177.797
25.780 65.517 171.914
27.260 66.167 160.895
28.820 66.755 149.127
30.470 67.265 136.540
32.220 67.672 123.101
34.060 67.947 108.990
36.010 68.069 94.228
38.080 68.020 78.981
40.260 67.796 63.598
42.560 67.408 48.268
45.000 66.872 33.080
47.580 66.216 18.192
50.310 65.467 3.628
53.190 64.651 -10.587
56.230 63.786 -24.516
59.460 62.883 -38.321
62.860 61.959 -51.952
66.460 61.018 -65.568
70.270 60.065 -79.239
74.300 59.103 -93.029
78.550 58.139 -106.965
83.050 57.168 -121.166
87.810 56.195 -135.678
92.840 55.218 -150.545
98.160 54.239 -165.837
103.780 53.259 178.410
109.730 52.274 162.107
116.020 51.287 145.221
122.660 50.299 127.722
129.690 49.307 109.502
137.120 48.311 90.535
144.970 47.313 70.769
153.280 46.310 50.103
162.060 45.303 28.514
171.340 44.292 5.930
181.160 43.274 -17.742
191.540 42.251 -42.547
202.510 41.222 -68.549
214.110 40.185 -95.833
226.380 39.139 -124.481
239.350 38.086 -154.546
253.060 37.024 173.902
267.560 35.954 140.777
282.890 34.879 106.020
299.090 33.805 69.577
316.230 32.737 31.327
334.340 31.688 -8.771
353.500 30.673 -50.894
373.750 29.711 -95.166
395.160 28.821 -141.841
417.800 28.019 168.760
441.730 27.309 116.277
467.040 26.683 60.253
493.800 26.109 0.308
522.090 25.545 -63.865
552.000 24.939 -132.446
583.620 24.250 154.539
617.050 23.453 77.136
652.400 22.549 -4.630
689.780 21.553 -90.823
729.290 20.483 178.408
771.080 19.345 82.734
815.250 18.134 -18.032
861.950 16.844 -124.091
911.330 15.477 124.451
963.540 14.067 7.494
1018.740 12.660 -115.232
1077.110 11.309 115.886
1138.810 10.082 -19.653
1204.050 9.047 -162.847
1273.030 8.202 44.961
1345.960 7.435 -117.417
1423.070 6.581 69.534
1504.590 5.534 -113.829
1590.790 4.338 52.776
1681.920 3.106 -150.927
1778.280 1.919 -6.143
1880.150 0.721 125.653
1987.870 -0.704 -116.111
2101.750 -2.378 -10.183
2222.150 -4.002 83.278
2349.460 -5.431 162.238
2484.060 -6.730 -136.606
2626.360 -8.112 -92.627
2776.820 -9.638 -66.930
2935.900 -11.335 -58.679
3104.100 -12.695 -69.179
3281.930 -13.747 -103.099
3469.940 -15.017 -162.593
3668.730 -16.898 113.902
3878.910 -19.009 9.086
4101.130 -20.390 -119.338
4336.070 -21.428 75.856
4584.480 -23.744 -120.021
4847.120 -26.235 18.396
5124.810 -28.417 121.283
5418.400 -31.387 -170.304
5728.810 -34.255 -133.149
6057.010 -36.893 -136.472
6404.000 -39.919 173.499
6770.880 -43.700 82.633
7158.770 -46.812 -56.660
7568.890 -53.039 116.451
8002.500 -60.304 -130.492
8460.950 -74.823 40.342
8945.670 -65.802 125.383
9458.160 -64.598 68.230
10000.000 -60.543 -49.751
