# Freq(Hz) SPL(dB) Phase (degrees)
10.000 51.132 -76.336
10.570 52.020 -80.555
11.180 52.912 -85.054
11.820 53.789 -89.756
12.500 54.664 -94.732
13.210 55.520 -99.909
13.970 56.378 -105.430
14.770 57.225 -111.224
15.620 58.066 -117.364
16.510 58.890 -123.779
17.460 59.713 -130.620
18.460 60.521 -137.821
19.510 61.313 -145.394
20.630 62.098 -153.498
21.810 62.866 -162.081
23.060 63.616 -171.239
24.380 64.342 178.998
25.780 65.037 168.524
27.260 65.688 157.310
28.820 66.278 145.336
30.470 66.789 132.531
32.220 67.197 118.860
34.060 67.475 104.506
36.010 67.599 89.485
38.080 67.553 73.963
40.260 67.332 58.290
42.560 66.947 42.654
45.000 66.415 27.141
47.580 65.763 11.907
50.310 65.019 -3.022
53.190 64.207 -17.623
56.230 63.348 -31.962
59.460 62.451 -46.203
62.860 61.534 -60.293
66.460 60.601 -74.399
70.270 59.656 -88.589
74.300 58.704 -102.932
78.550 57.750 -117.452
83.050 56.791 -132.276
87.810 55.830 -147.451
92.840 54.869 -163.023
98.160 53.905 -179.066
103.780 52.942 164.382
109.730 51.977 147.224
116.020 51.012 129.426
122.660 50.047 110.955
129.690 49.080 91.694
137.120 48.113 71.611
144.970 47.146 50.650
153.280 46.176 28.700
162.060 45.205 5.731
171.340 44.233 -18.339
181.160 43.258 -43.617
191.540 42.279 -70.158
202.510 41.297 -98.039
214.110 40.310 -127.366
226.380 39.315 -158.240
239.350 38.311 169.266
253.060 37.297 135.055
267.560 36.269 99.010
282.890 35.226 61.044
299.090 34.166 21.076
316.230 33.085 -21.045
334.340 31.983 -65.363
353.500 30.859 -112.042
373.750 29.714 -161.144
395.160 28.551 147.196
417.800 27.372 92.843
441.730 26.182 35.677
467.040 24.988 -24.500
493.800 23.794 -87.848
522.090 22.606 -154.556
552.000 21.430 135.164
583.620 20.270 61.107
617.050 19.136 -16.949
652.400 18.042 -99.272
689.780 17.007 173.819
729.290 16.047 81.947
771.080 15.169 -15.451
815.250 14.364 -118.858
861.950 13.603 131.166
911.330 12.843 14.152
963.540 12.038 -110.236
1018.740 11.145 117.761
1077.110 10.115 -22.034
1138.810 8.918 -169.459
1204.050 7.613 35.564
1273.030 6.286 -127.191
1345.960 5.012 61.448
1423.070 3.795 -119.315
1504.590 2.643 49.938
1590.790 1.626 -151.375
1681.920 0.841 -4.700
1778.280 0.203 127.889
1880.150 -0.525 -114.540
1987.870 -1.445 -12.401
2101.750 -2.733 74.922
2222.150 -4.299 147.475
2349.460 -6.069 -155.100
2484.060 -7.964 -113.469
2626.360 -9.892 -88.812
2776.820 -11.866 -82.565
2935.900 -14.002 -95.409
3104.100 -16.170 -126.284
3281.930 -17.670 -176.480
3469.940 -18.343 106.062
3668.730 -18.891 -2.103
3878.910 -20.155 -141.742
4101.130 -22.307 51.593
4336.070 -24.712 -140.545
4584.480 -26.850 -2.820
4847.120 -28.810 99.739
5124.810 -31.186 165.171
5418.400 -33.866 -161.403
5728.810 -37.261 -170.190
6057.010 -39.691 144.257
6404.000 -41.718 49.430
6770.880 -44.038 -98.853
7158.770 -55.700 57.173
7568.890 -63.385 178.912
8002.500 -70.688 -92.168
8460.950 -67.204 37.687
8945.670 -65.239 8.631
9458.160 -65.707 -119.764
10000.000 -66.472 59.460
