# Freq(Hz) SPL(dB) Phase (degrees)
10.000 51.818 -74.520
10.570 52.706 -78.636
11.180 53.597 -83.024
11.820 54.475 -87.609
12.500 55.349 -92.462
13.210 56.204 -97.510
13.970 57.062 -102.893
14.770 57.908 -108.541
15.620 58.749 -114.526
16.510 59.573 -120.780
17.460 60.394 -127.447
18.460 61.202 -134.467
19.510 61.992 -141.848
20.630 62.777 -149.748
21.810 63.544 -158.115
23.060 64.293 -167.046
24.380 65.017 -176.567
25.780 65.710 173.215
27.260 66.360 162.271
28.820 66.948 150.583
30.470 67.457 138.080
32.220 67.863 124.730
34.060 68.138 110.713
36.010 68.259 96.052
38.080 68.210 80.911
40.260 67.985 65.639
42.560 67.596 50.428
45.000 67.059 35.367
47.580 66.403 20.613
50.310 65.652 6.191
53.190 64.835 -7.873
56.230 63.969 -21.642
59.460 63.064 -35.276
62.860 62.139 -48.726
66.460 61.196 -62.149
70.270 60.241 -75.615
74.300 59.278 -89.186
78.550 58.311 -102.889
83.050 57.338 -116.841
87.810 56.362 -131.088
92.840 55.384 -145.672
98.160 54.402 -160.660
103.780 53.419 -176.088
109.730 52.432 167.957
116.020 51.444 151.445
122.660 50.454 134.346
129.690 49.460 116.558
137.120 48.465 98.055
144.970 47.468 78.787
153.280 46.468 58.659
162.060 45.466 37.648
171.340 44.462 15.686
181.160 43.457 -7.318
191.540 42.451 -31.407
202.510 41.445 -56.646
214.110 40.440 -83.122
226.380 39.436 -110.920
239.350 38.437 -140.105
253.060 37.445 -170.762
267.560 36.461 156.999
282.890 35.490 123.086
299.090 34.536 87.402
316.230 33.604 49.776
334.340 32.699 10.116
353.500 31.825 -31.796
373.750 30.988 -76.105
395.160 30.189 -123.039
417.800 29.428 -172.844
441.730 28.697 134.245
467.040 27.985 77.930
493.800 27.272 17.980
522.090 26.531 -45.803
552.000 25.734 -113.565
583.620 24.860 174.623
617.050 23.898 98.709
652.400 22.845 18.599
689.780 21.707 -65.854
729.290 20.478 -154.801
771.080 19.144 111.548
815.250 17.689 13.258
861.950 16.124 -89.498
911.330 14.524 163.540
963.540 13.061 52.243
1018.740 11.916 -64.612
1077.110 11.121 170.846
1138.810 10.483 36.969
1204.050 9.746 -106.476
1273.030 8.813 101.091
1345.960 7.710 -59.931
1423.070 6.496 130.228
1504.590 5.212 -48.873
1590.790 3.906 122.009
1681.920 2.514 -78.255
1778.280 0.861 70.282
1880.150 -1.005 -150.989
1987.870 -2.739 -22.090
2101.750 -3.969 93.692
2222.150 -5.129 -167.032
2349.460 -6.598 -82.534
2484.060 -7.787 -11.166
2626.360 -8.365 40.767
2776.820 -9.246 68.907
2935.900 -11.318 78.068
3104.100 -13.678 76.465
3281.930 -14.685 54.639
3469.940 -15.906 2.761
3668.730 -18.142 -70.746
3878.910 -19.937 -164.741
4101.130 -21.890 70.670
4336.070 -24.958 -76.574
4584.480 -26.351 114.324
4847.120 -27.851 -98.430
5124.810 -30.636 19.170
5418.400 -32.647 108.789
5728.810 -35.338 155.367
6057.010 -37.365 166.677
6404.000 -41.022 129.553
6770.880 -45.988 62.937
7158.770 -49.142 -44.266
7568.890 -52.754 149.595
8002.500 -60.530 -36.040
8460.950 -67.764 89.716
8945.670 -61.675 176.944
9458.160 -60.718 154.400
10000.000 -60.630 63.855
