# Freq(Hz) SPL(dB) Phase (degrees)
10.000 53.227 -71.227
10.570 54.115 -75.156
11.180 55.007 -79.343
11.820 55.884 -83.717
12.500 56.759 -88.346
13.210 57.615 -93.159
13.970 58.473 -98.292
14.770 59.319 -103.677
15.620 60.161 -109.381
16.510 60.985 -115.341
17.460 61.807 -121.695
18.460 62.616 -128.385
19.510 63.407 -135.420
20.630 64.193 -142.950
21.810 64.961 -150.927
23.060 65.711 -159.444
24.380 66.436 -168.529
25.780 67.131 -178.284
27.260 67.783 171.263
28.820 68.373 160.092
30.470 68.884 148.136
32.220 69.293 135.367
34.060 69.570 121.961
36.010 69.695 107.948
38.080 69.649 93.496
40.260 69.429 78.951
42.560 69.044 64.508
45.000 68.513 50.262
47.580 67.863 36.371
50.310 67.120 22.864
53.190 66.310 9.767
56.230 65.454 -2.980
59.460 64.560 -15.526
62.860 63.648 -27.828
66.460 62.719 -40.035
70.270 61.781 -52.210
74.300 60.837 -64.415
78.550 59.893 -76.675
83.050 58.947 -89.098
87.810 58.002 -101.726
92.840 57.059 -114.599
98.160 56.120 -127.781
103.780 55.185 -141.305
109.730 54.255 -155.251
116.020 53.333 -169.652
122.660 52.419 175.461
129.690 51.514 159.988
137.120 50.620 143.897
144.970 49.739 127.132
153.280 48.871 109.592
162.060 48.018 91.237
171.340 47.182 71.985
181.160 46.360 51.729
191.540 45.554 30.402
202.510 44.764 7.916
214.110 43.985 -15.839
226.380 43.216 -40.969
239.350 42.452 -67.556
253.060 41.688 -95.697
267.560 40.917 -125.502
282.890 40.134 -157.047
299.090 39.330 169.600
316.230 38.500 134.327
334.340 37.638 97.114
353.500 36.740 57.850
373.750 35.803 16.514
395.160 34.829 -26.971
417.800 33.818 -72.682
441.730 32.777 -120.678
467.040 31.713 -171.079
493.800 30.636 136.026
522.090 29.562 80.509
552.000 28.512 22.171
583.620 27.502 -39.263
617.050 26.540 -104.157
652.400 25.615 -172.887
689.780 24.703 114.254
729.290 23.783 37.115
771.080 22.841 -44.468
815.250 21.887 -130.562
861.950 20.937 138.576
911.330 20.004 42.576
963.540 19.082 -58.924
1018.740 18.166 -166.219
1077.110 17.253 80.381
1138.810 16.346 -39.345
1204.050 15.488 -165.574
1273.030 14.780 60.826
1345.960 14.178 -81.739
1423.070 13.455 126.077
1504.590 12.497 -34.943
1590.790 11.395 155.638
1681.920 10.224 -22.648
1778.280 9.024 149.932
1880.150 7.969 -47.000
1987.870 7.149 104.271
2101.750 6.406 -117.974
2222.150 5.513 5.890
2349.460 4.400 116.616
2484.060 3.310 -145.769
2626.360 2.310 -63.863
2776.820 1.138 1.494
2935.900 -0.228 50.644
3104.100 -1.631 83.981
3281.930 -2.732 98.715
3469.940 -3.814 92.503
3668.730 -4.933 63.884
3878.910 -6.373 12.543
4101.130 -8.133 -61.334
4336.070 -9.889 -156.567
4584.480 -11.184 81.623
4847.120 -12.656 -71.560
5124.810 -14.577 107.359
5418.400 -16.623 -102.353
5728.810 -18.324 14.945
6057.010 -20.348 95.867
6404.000 -22.665 142.470
6770.880 -24.700 150.137
7158.770 -27.406 115.437
7568.890 -30.004 39.152
8002.500 -32.941 -83.153
8460.950 -36.573 106.233
8945.670 -41.005 -116.431
9458.160 -46.421 -30.322
10000.000 -54.960 -17.096
