# Freq(Hz) SPL(dB) Phase (degrees)
10.000 51.534 -75.254
10.570 52.422 -79.412
11.180 53.313 -83.845
11.820 54.191 -88.477
12.500 55.065 -93.380
13.210 55.921 -98.480
13.970 56.779 -103.919
14.770 57.625 -109.626
15.620 58.466 -115.673
16.510 59.290 -121.993
17.460 60.111 -128.730
18.460 60.919 -135.823
19.510 61.710 -143.283
20.630 62.495 -151.265
21.810 63.262 -159.719
23.060 64.012 -168.742
24.380 64.736 -178.361
25.780 65.430 171.317
27.260 66.080 160.264
28.820 66.669 148.460
30.470 67.178 135.834
32.220 67.585 122.354
34.060 67.861 108.200
36.010 67.983 93.393
38.080 67.934 78.097
40.260 67.711 62.663
42.560 67.323 47.279
45.000 66.788 32.034
47.580 66.133 17.084
50.310 65.384 2.455
53.190 64.568 -11.827
56.230 63.705 -25.829
59.460 62.802 -39.712
62.860 61.879 -53.423
66.460 60.939 -67.127
70.270 59.986 -80.890
74.300 59.026 -94.778
78.550 58.063 -108.818
83.050 57.094 -123.130
87.810 56.121 -137.761
92.840 55.147 -152.754
98.160 54.169 -168.180
103.780 53.190 175.924
109.730 52.208 159.467
116.020 51.223 142.417
122.660 50.237 124.743
129.690 49.247 106.335
137.120 48.254 87.166
144.970 47.258 67.183
153.280 46.257 46.285
162.060 45.252 24.445
171.340 44.243 1.591
181.160 43.227 -22.373
191.540 42.204 -47.493
202.510 41.175 -73.836
214.110 40.136 -101.489
226.380 39.087 -130.537
239.350 38.027 -161.034
253.060 36.956 166.947
267.560 35.872 133.320
282.890 34.777 98.027
299.090 33.673 61.019
316.230 32.566 22.185
334.340 31.466 -18.498
353.500 30.385 -61.177
373.750 29.344 -105.941
395.160 28.365 -152.997
417.800 27.471 157.369
441.730 26.676 104.813
467.040 25.983 48.859
493.800 25.370 -10.930
522.090 24.799 -74.935
552.000 24.217 -143.408
583.620 23.577 143.568
617.050 22.851 66.010
652.400 22.034 -16.077
689.780 21.137 -102.769
729.290 20.176 165.771
771.080 19.155 69.185
815.250 18.066 -32.749
861.950 16.894 -140.282
911.330 15.632 106.428
963.540 14.290 -12.742
1018.740 12.890 -138.026
1077.110 11.449 90.344
1138.810 10.012 -47.753
1204.050 8.675 167.223
1273.030 7.536 14.213
1345.960 6.583 -148.328
1423.070 5.669 38.466
1504.590 4.636 -145.467
1590.790 3.473 20.176
1681.920 2.267 175.419
1778.280 1.162 -40.664
1880.150 0.191 89.905
1987.870 -0.908 -154.612
2101.750 -2.410 -53.404
2222.150 -4.249 34.892
2349.460 -6.204 110.682
2484.060 -7.753 172.130
2626.360 -8.896 -143.972
2776.820 -9.897 -121.664
2935.900 -11.426 -120.965
3104.100 -13.461 -137.937
3281.930 -15.295 -172.046
3469.940 -16.378 130.585
3668.730 -17.391 43.892
3878.910 -19.050 -70.348
4101.130 -21.372 151.245
4336.070 -23.130 -11.696
4584.480 -24.764 151.319
4847.120 -26.873 -79.671
5124.810 -29.557 16.872
5418.400 -32.575 81.718
5728.810 -35.005 109.986
6057.010 -38.670 94.341
6404.000 -42.157 50.330
6770.880 -44.319 -52.474
7158.770 -49.161 163.096
7568.890 -53.719 -33.590
8002.500 -63.644 88.276
8460.950 -72.571 -101.843
8945.670 -66.640 -81.944
9458.160 -62.326 -112.119
10000.000 -64.242 132.640
