# Freq(Hz) SPL(dB) Phase (degrees)
10.000 51.055 -76.550
10.570 51.942 -80.782
11.180 52.834 -85.294
11.820 53.712 -90.010
12.500 54.586 -95.001
13.210 55.442 -100.193
13.970 56.301 -105.731
14.770 57.147 -111.542
15.620 57.989 -117.699
16.510 58.813 -124.134
17.460 59.636 -130.995
18.460 60.444 -138.218
19.510 61.236 -145.814
20.630 62.022 -153.942
21.810 62.790 -162.550
23.060 63.540 -171.735
24.380 64.266 178.474
25.780 64.961 167.970
27.260 65.613 156.724
28.820 66.203 144.716
30.470 66.714 131.875
32.220 67.123 118.167
34.060 67.401 103.773
36.010 67.526 88.710
38.080 67.480 73.144
40.260 67.260 57.423
42.560 66.876 41.737
45.000 66.344 26.171
47.580 65.694 10.882
50.310 64.950 -4.107
53.190 64.140 -18.770
56.230 63.282 -33.175
59.460 62.387 -47.486
62.860 61.472 -61.651
66.460 60.540 -75.835
70.270 59.597 -90.109
74.300 58.647 -104.540
78.550 57.696 -119.154
83.050 56.740 -134.077
87.810 55.782 -149.358
92.840 54.824 -165.042
98.160 53.864 178.797
103.780 52.905 162.119
109.730 51.945 144.828
116.020 50.985 126.888
122.660 50.026 108.266
129.690 49.066 88.844
137.120 48.107 68.592
144.970 47.148 47.449
153.280 46.187 25.305
162.060 45.227 2.129
171.340 44.267 -22.162
181.160 43.305 -47.675
191.540 42.342 -74.468
202.510 41.376 -102.621
214.110 40.408 -132.239
226.380 39.434 -163.427
239.350 38.455 163.739
253.060 37.469 129.158
267.560 36.473 92.710
282.890 35.465 54.300
299.090 34.445 13.839
316.230 33.410 -28.831
334.340 32.359 -73.769
353.500 31.292 -121.155
373.750 30.209 -171.071
395.160 29.112 136.325
417.800 28.000 80.869
441.730 26.875 22.413
467.040 25.734 -39.263
493.800 24.574 -104.326
522.090 23.388 -172.941
552.000 22.170 114.741
583.620 20.921 38.615
617.050 19.650 -41.431
652.400 18.381 -125.568
689.780 17.144 145.952
729.290 15.971 52.799
771.080 14.886 -45.563
815.250 13.905 -149.636
861.950 13.025 99.908
911.330 12.222 -17.613
963.540 11.446 -142.823
1018.740 10.631 83.789
1077.110 9.687 -58.144
1138.810 8.524 151.496
1204.050 7.149 -6.942
1273.030 5.620 -173.380
1345.960 4.019 11.662
1423.070 2.339 -172.457
1504.590 0.570 -5.953
1590.790 -1.231 151.345
1681.920 -2.837 -60.622
1778.280 -3.935 76.161
1880.150 -4.558 -162.024
1987.870 -4.949 -57.177
2101.750 -5.513 30.237
2222.150 -6.298 100.347
2349.460 -7.423 153.188
2484.060 -8.859 -171.302
2626.360 -10.569 -153.279
2776.820 -12.435 -152.879
2935.900 -14.206 -171.838
3104.100 -15.862 147.616
3281.930 -17.504 83.330
3469.940 -19.021 -5.716
3668.730 -20.838 -121.270
3878.910 -22.570 92.269
4101.130 -25.162 -86.558
4336.070 -29.170 65.863
4584.480 -33.829 -162.376
4847.120 -36.997 -61.847
5124.810 -39.457 -7.864
5418.400 -44.320 -18.301
5728.810 -53.473 -4.909
6057.010 -56.422 -51.117
6404.000 -56.619 -179.719
6770.880 -58.832 41.600
7158.770 -51.777 119.822
7568.890 -60.345 -171.410
8002.500 -66.330 -83.441
8460.950 -73.444 -125.279
8945.670 -70.723 -50.443
9458.160 -65.779 -158.909
10000.000 -65.029 -5.380
