# Freq(Hz) SPL(dB) Phase (degrees)
10.000 51.245 -76.027
10.570 52.132 -80.229
11.180 53.024 -84.709
11.820 53.901 -89.391
12.500 54.776 -94.347
13.210 55.632 -99.502
13.970 56.490 -105.000
14.770 57.336 -110.769
15.620 58.177 -116.882
16.510 59.001 -123.270
17.460 59.823 -130.082
18.460 60.631 -137.252
19.510 61.423 -144.793
20.630 62.208 -152.862
21.810 62.976 -161.408
23.060 63.726 -170.527
24.380 64.450 179.750
25.780 65.145 169.320
27.260 65.795 158.152
28.820 66.385 146.226
30.470 66.895 133.472
32.220 67.303 119.856
34.060 67.579 105.559
36.010 67.703 90.599
38.080 67.655 75.141
40.260 67.433 59.536
42.560 67.046 43.972
45.000 66.513 28.535
47.580 65.860 13.383
50.310 65.113 -1.461
53.190 64.300 -15.971
56.230 63.438 -30.214
59.460 62.538 -44.353
62.860 61.619 -58.335
66.460 60.682 -72.326
70.270 59.734 -86.395
74.300 58.777 -100.607
78.550 57.819 -114.991
83.050 56.855 -129.669
87.810 55.888 -144.688
92.840 54.920 -160.095
98.160 53.950 -175.961
103.780 52.979 167.674
109.730 52.005 150.717
116.020 51.029 133.134
122.660 50.053 114.891
129.690 49.075 95.875
137.120 48.094 76.056
144.970 47.112 55.377
153.280 46.125 33.731
162.060 45.137 11.089
171.340 44.144 -12.628
181.160 43.147 -37.523
191.540 42.144 -63.648
202.510 41.136 -91.079
214.110 40.120 -119.915
226.380 39.095 -150.254
239.350 38.060 177.836
253.060 37.013 144.262
267.560 35.951 108.911
282.890 34.874 71.700
299.090 33.780 32.546
316.230 32.667 -8.700
334.340 31.535 -52.091
353.500 30.383 -97.799
373.750 29.212 -145.900
395.160 28.021 163.454
417.800 26.807 110.115
441.730 25.567 53.965
467.040 24.294 -5.157
493.800 22.980 -67.307
522.090 21.623 -132.478
552.000 20.241 159.397
583.620 18.889 88.371
617.050 17.656 14.242
652.400 16.635 -63.657
689.780 15.867 -146.366
729.290 15.314 125.099
771.080 14.885 29.925
815.250 14.488 -72.230
861.950 14.045 178.398
911.330 13.499 61.658
963.540 12.804 -62.577
1018.740 11.908 165.568
1077.110 10.745 26.160
1138.810 9.288 -120.182
1204.050 7.632 87.059
1273.030 5.996 -72.125
1345.960 4.565 120.857
1423.070 3.356 -55.897
1504.590 2.216 116.297
1590.790 1.037 -82.922
1681.920 -0.237 66.037
1778.280 -1.709 -156.934
1880.150 -3.368 -30.694
1987.870 -4.766 84.568
2101.750 -5.711 -174.589
2222.150 -6.449 -91.150
2349.460 -7.244 -25.912
2484.060 -8.286 20.602
2626.360 -9.758 49.108
2776.820 -11.450 60.613
2935.900 -13.116 52.803
3104.100 -14.999 23.697
3281.930 -17.311 -26.098
3469.940 -19.380 -93.098
3668.730 -20.470 175.216
3878.910 -20.970 49.710
4101.130 -22.895 -111.308
4336.070 -26.033 64.905
4584.480 -28.916 -141.429
4847.120 -30.992 -20.679
5124.810 -32.700 63.245
5418.400 -34.867 96.725
5728.810 -39.783 104.474
6057.010 -42.820 87.018
6404.000 -45.965 5.454
6770.880 -50.072 -120.948
7158.770 -54.914 69.164
7568.890 -61.485 -119.930
8002.500 -67.516 7.623
8460.950 -72.341 97.028
8945.670 -69.717 96.991
9458.160 -74.009 30.553
10000.000 -61.194 -107.935
