# Freq(Hz) SPL(dB) Phase (degrees)
10.000 51.187 -76.184
10.570 52.075 -80.396
11.180 52.966 -84.885
11.820 53.844 -89.577
12.500 54.718 -94.543
13.210 55.574 -99.709
13.970 56.433 -105.219
14.770 57.279 -111.001
15.620 58.120 -117.128
16.510 58.944 -123.530
17.460 59.766 -130.356
18.460 60.575 -137.542
19.510 61.366 -145.099
20.630 62.152 -153.187
21.810 62.919 -161.751
23.060 63.669 -170.890
24.380 64.394 179.367
25.780 65.089 168.914
27.260 65.739 157.723
28.820 66.329 145.773
30.470 66.840 132.992
32.220 67.248 119.348
34.060 67.524 105.022
36.010 67.648 90.031
38.080 67.601 74.541
40.260 67.380 58.901
42.560 66.993 43.300
45.000 66.460 27.825
47.580 65.808 12.631
50.310 65.062 -2.256
53.190 64.249 -16.813
56.230 63.389 -31.104
59.460 62.490 -45.295
62.860 61.571 -59.332
66.460 60.636 -73.381
70.270 59.689 -87.512
74.300 58.734 -101.791
78.550 57.777 -116.244
83.050 56.815 -130.996
87.810 55.850 -146.094
92.840 54.884 -161.585
98.160 53.917 -177.540
103.780 52.948 166.000
109.730 51.977 148.942
116.020 51.006 131.251
122.660 50.034 112.893
129.690 49.059 93.754
137.120 48.083 73.803
144.970 47.106 52.983
153.280 46.126 31.185
162.060 45.144 8.381
171.340 44.159 -15.511
181.160 43.169 -40.595
191.540 42.176 -66.924
202.510 41.177 -94.576
214.110 40.172 -123.651
226.380 39.158 -154.250
239.350 38.135 173.555
253.060 37.101 139.670
267.560 36.054 103.978
282.890 34.992 66.391
299.090 33.914 26.823
316.230 32.818 -14.882
334.340 31.703 -58.783
353.500 30.568 -105.058
373.750 29.412 -153.795
395.160 28.234 154.845
417.800 27.030 100.697
441.730 25.794 43.627
467.040 24.512 -16.547
493.800 23.172 -79.903
522.090 21.756 -146.440
552.000 20.265 143.948
583.620 18.729 71.463
617.050 17.229 -3.800
652.400 15.888 -82.140
689.780 14.817 -164.420
729.290 14.049 108.127
771.080 13.525 14.264
815.250 13.136 -86.717
861.950 12.779 164.753
911.330 12.367 48.449
963.540 11.833 -75.774
1018.740 11.111 151.962
1077.110 10.115 11.726
1138.810 8.798 -135.818
1204.050 7.238 69.991
1273.030 5.650 -90.614
1345.960 4.257 101.171
1423.070 3.125 -76.615
1504.590 2.135 94.369
1590.790 1.175 -106.590
1681.920 0.166 39.655
1778.280 -1.081 172.460
1880.150 -2.757 -67.321
1987.870 -4.714 41.671
2101.750 -6.678 139.464
2222.150 -8.376 -135.553
2349.460 -9.583 -65.495
2484.060 -10.266 -14.577
2626.360 -10.982 14.715
2776.820 -11.941 23.761
2935.900 -13.022 11.473
3104.100 -14.476 -23.996
3281.930 -16.570 -82.532
3469.940 -19.469 -160.441
3668.730 -22.509 105.584
3878.910 -23.881 -9.501
4101.130 -24.367 -166.102
4336.070 -26.021 4.641
4584.480 -28.399 145.821
4847.120 -31.068 -105.365
5124.810 -34.768 -28.782
5418.400 -37.647 22.551
5728.810 -39.377 27.494
6057.010 -42.053 -14.803
6404.000 -45.462 -110.045
6770.880 -53.119 136.659
7158.770 -57.595 -16.127
7568.890 -59.968 120.834
8002.500 -71.694 -128.830
8460.950 -75.087 -70.339
8945.670 -78.348 11.999
9458.160 -67.639 -108.597
10000.000 -75.126 -95.529
