# Freq(Hz) SPL(dB) Phase (degrees)
10.000 51.090 -76.453
10.570 51.977 -80.680
11.180 52.869 -85.185
11.820 53.747 -89.895
12.500 54.621 -94.879
13.210 55.477 -100.064
13.970 56.336 -105.595
14.770 57.182 -111.398
15.620 58.024 -117.548
16.510 58.848 -123.974
17.460 59.670 -130.825
18.460 60.479 -138.039
19.510 61.271 -145.624
20.630 62.056 -153.741
21.810 62.824 -162.338
23.060 63.575 -171.511
24.380 64.300 178.711
25.780 64.995 168.221
27.260 65.646 156.989
28.820 66.237 144.997
30.470 66.748 132.172
32.220 67.157 118.480
34.060 67.434 104.104
36.010 67.559 89.061
38.080 67.513 73.514
40.260 67.292 57.815
42.560 66.908 42.152
45.000 66.376 26.610
47.580 65.725 11.346
50.310 64.981 -3.616
53.190 64.170 -18.252
56.230 63.312 -32.627
59.460 62.416 -46.906
62.860 61.500 -61.037
66.460 60.567 -75.186
70.270 59.624 -89.422
74.300 58.673 -103.813
78.550 57.720 -118.385
83.050 56.763 -133.263
87.810 55.804 -148.496
92.840 54.844 -164.130
98.160 53.883 179.762
103.780 52.922 163.141
109.730 51.959 145.910
116.020 50.997 128.034
122.660 50.035 109.480
129.690 49.072 90.130
137.120 48.109 69.954
144.970 47.146 48.892
153.280 46.181 26.835
162.060 45.217 3.752
171.340 44.251 -20.440
181.160 43.283 -45.849
191.540 42.312 -72.529
202.510 41.339 -100.561
214.110 40.362 -130.050
226.380 39.378 -161.099
239.350 38.388 166.217
253.060 37.389 131.799
267.560 36.378 95.527
282.890 35.354 57.312
299.090 34.315 17.066
316.230 33.257 -25.365
334.340 32.182 -70.035
353.500 31.088 -117.115
373.750 29.975 -166.679
395.160 28.844 141.125
417.800 27.698 86.145
441.730 26.538 28.249
467.040 25.364 -32.772
493.800 24.178 -97.078
522.090 22.978 -164.837
552.000 21.762 123.782
583.620 20.536 48.638
617.050 19.309 -30.425
652.400 18.103 -113.622
689.780 16.946 158.757
729.290 15.864 66.350
771.080 14.873 -31.410
815.250 13.979 -135.038
861.950 13.162 114.825
911.330 12.385 -2.413
963.540 11.595 -127.227
1018.740 10.734 100.039
1077.110 9.728 -40.852
1138.810 8.517 170.292
1204.050 7.139 13.744
1273.030 5.673 -150.533
1345.960 4.210 36.789
1423.070 2.755 -144.991
1504.590 1.325 23.742
1590.790 0.017 -177.269
1681.920 -0.971 -29.172
1778.280 -1.583 105.388
1880.150 -2.067 -135.692
1987.870 -2.599 -33.134
2101.750 -3.439 53.378
2222.150 -4.543 123.876
2349.460 -5.918 178.162
2484.060 -7.515 -144.278
2626.360 -9.276 -124.125
2776.820 -11.136 -122.302
2935.900 -13.080 -140.532
3104.100 -15.205 -179.498
3281.930 -17.458 121.097
3469.940 -19.340 39.164
3668.730 -20.920 -67.725
3878.910 -22.472 152.948
4101.130 -24.990 -14.781
4336.070 -27.800 154.347
4584.480 -29.405 -66.747
4847.120 -30.643 32.086
5124.810 -32.665 89.348
5418.400 -36.520 115.986
5728.810 -39.172 93.072
6057.010 -43.702 38.597
6404.000 -48.258 -55.706
6770.880 -49.810 164.171
7158.770 -59.649 -36.103
7568.890 -60.160 64.918
8002.500 -68.044 60.885
8460.950 -84.397 94.217
8945.670 -81.982 -4.713
9458.160 -85.741 -18.522
10000.000 -70.012 153.594
