# Freq(Hz) SPL(dB) Phase (degrees)
10.000 53.474 -70.704
10.570 54.362 -74.603
11.180 55.254 -78.758
11.820 56.132 -83.099
12.500 57.006 -87.692
13.210 57.862 -92.468
13.970 58.721 -97.561
14.770 59.567 -102.904
15.620 60.409 -108.564
16.510 61.234 -114.477
17.460 62.056 -120.782
18.460 62.865 -127.419
19.510 63.657 -134.399
20.630 64.443 -141.870
21.810 65.211 -149.786
23.060 65.962 -158.237
24.380 66.688 -167.253
25.780 67.383 -176.935
27.260 68.035 172.689
28.820 68.626 161.599
30.470 69.138 149.730
32.220 69.548 137.052
34.060 69.826 123.743
36.010 69.952 109.832
38.080 69.907 95.488
40.260 69.689 81.057
42.560 69.306 66.733
45.000 68.777 52.615
47.580 68.129 38.858
50.310 67.388 25.494
53.190 66.582 12.546
56.230 65.728 -0.043
59.460 64.838 -12.423
62.860 63.929 -24.549
66.460 63.006 -36.571
70.270 62.072 -48.552
74.300 61.134 -60.552
78.550 60.197 -72.597
83.050 59.258 -84.795
87.810 58.321 -97.187
92.840 57.388 -109.815
98.160 56.459 -122.740
103.780 55.536 -135.998
109.730 54.619 -149.670
116.020 53.710 -163.787
122.660 52.813 -178.384
129.690 51.924 166.440
137.120 51.048 150.651
144.970 50.186 134.190
153.280 49.337 116.956
162.060 48.503 98.909
171.340 47.685 79.965
181.160 46.881 60.020
191.540 46.090 39.008
202.510 45.311 16.844
214.110 44.540 -6.574
226.380 43.773 -31.343
239.350 43.005 -57.535
253.060 42.231 -85.233
267.560 41.444 -114.527
282.890 40.637 -145.473
299.090 39.806 -178.112
316.230 38.945 147.470
334.340 38.055 111.285
353.500 37.137 73.251
373.750 36.200 33.368
395.160 35.259 -8.447
417.800 34.333 -52.318
441.730 33.446 -98.424
467.040 32.613 -147.092
493.800 31.839 161.315
522.090 31.104 106.411
552.000 30.367 47.894
583.620 29.579 -14.347
617.050 28.706 -80.241
652.400 27.743 -149.637
689.780 26.724 137.556
729.290 25.706 61.237
771.080 24.738 -19.080
815.250 23.834 -103.981
861.950 22.949 165.955
911.330 22.020 70.552
963.540 21.036 -29.983
1018.740 20.085 -135.676
1077.110 19.250 112.486
1138.810 18.429 -6.706
1204.050 17.427 -133.066
1273.030 16.266 94.609
1345.960 15.211 -43.417
1423.070 14.498 171.002
1504.590 14.036 15.372
1590.790 13.564 -151.178
1681.920 12.958 31.604
1778.280 12.171 -156.390
1880.150 11.147 5.170
1987.870 9.994 156.487
2101.750 8.852 -63.182
2222.150 7.771 64.839
2349.460 6.642 179.140
2484.060 5.367 -79.945
2626.360 4.145 7.567
2776.820 3.149 79.366
2935.900 2.153 133.237
3104.100 1.018 169.652
3281.930 -0.054 -172.714
3469.940 -1.367 -175.818
3668.730 -2.984 161.284
3878.910 -4.720 119.299
4101.130 -6.158 55.876
4336.070 -7.231 -33.123
4584.480 -8.536 -150.047
4847.120 -10.108 66.703
5124.810 -11.831 -104.149
5418.400 -13.232 56.749
5728.810 -14.530 -176.616
6057.010 -15.841 -85.195
6404.000 -17.585 -28.696
6770.880 -19.096 -9.042
7158.770 -20.579 -31.373
7568.890 -22.323 -95.541
8002.500 -24.074 156.067
8460.950 -25.847 0.131
8945.670 -27.677 154.152
9458.160 -29.608 -104.795
10000.000 -31.402 -60.671
