# Freq(Hz) SPL(dB) Phase (degrees)
10.000 53.355 -70.956
10.570 54.243 -74.869
11.180 55.134 -79.039
11.820 56.012 -83.396
12.500 56.886 -88.006
13.210 57.742 -92.800
13.970 58.601 -97.913
14.770 59.447 -103.275
15.620 60.289 -108.957
16.510 61.113 -114.892
17.460 61.936 -121.221
18.460 62.744 -127.883
19.510 63.536 -134.889
20.630 64.322 -142.389
21.810 65.090 -150.334
23.060 65.840 -158.817
24.380 66.566 -167.866
25.780 67.261 -177.583
27.260 67.913 172.004
28.820 68.503 160.875
30.470 69.015 148.964
32.220 69.424 136.243
34.060 69.702 122.888
36.010 69.827 108.927
38.080 69.782 94.532
40.260 69.562 80.046
42.560 69.178 65.665
45.000 68.648 51.486
47.580 67.999 37.665
50.310 67.257 24.232
53.190 66.449 11.213
56.230 65.594 -1.451
59.460 64.702 -13.910
62.860 63.791 -26.120
66.460 62.865 -38.230
70.270 61.929 -50.303
74.300 60.988 -62.400
78.550 60.047 -74.547
83.050 59.104 -86.850
87.810 58.163 -99.353
92.840 57.224 -112.096
98.160 56.290 -125.140
103.780 55.360 -138.520
109.730 54.436 -152.318
116.020 53.520 -166.563
122.660 52.613 178.710
129.690 51.715 163.404
137.120 50.829 147.486
144.970 49.956 130.898
153.280 49.096 113.540
162.060 48.251 95.375
171.340 47.421 76.320
181.160 46.606 56.270
191.540 45.805 35.161
202.510 45.017 12.911
214.110 44.240 -10.585
226.380 43.469 -35.424
239.350 42.701 -61.679
253.060 41.930 -89.434
267.560 41.150 -118.780
282.890 40.357 -149.777
299.090 39.546 177.531
316.230 38.713 143.059
334.340 37.859 106.812
353.500 36.987 68.706
373.750 36.109 28.732
395.160 35.241 -13.202
417.800 34.407 -57.241
441.730 33.631 -103.602
467.040 32.932 -152.663
493.800 32.311 155.149
522.090 31.739 99.394
552.000 31.165 39.740
583.620 30.527 -23.920
617.050 29.778 -91.483
652.400 28.902 -162.733
689.780 27.924 122.551
729.290 26.903 44.460
771.080 25.919 -37.314
815.250 25.035 -123.353
861.950 24.247 145.507
911.330 23.502 48.692
963.540 22.757 -53.975
1018.740 22.029 -162.698
1077.110 21.332 81.788
1138.810 20.574 -41.289
1204.050 19.610 -171.880
1273.030 18.420 50.645
1345.960 17.084 -93.439
1423.070 15.696 115.662
1504.590 14.339 -42.586
1590.790 13.059 151.313
1681.920 12.025 -23.089
1778.280 11.369 151.854
1880.150 10.897 -45.727
1987.870 10.511 103.305
2101.750 9.975 -122.334
2222.150 9.014 -1.873
2349.460 7.660 106.002
2484.060 6.116 -158.365
2626.360 4.607 -76.018
2776.820 3.169 -8.804
2935.900 1.874 42.210
3104.100 0.594 74.308
3281.930 -0.946 88.459
3469.940 -2.226 84.856
3668.730 -3.383 57.714
3878.910 -4.952 8.026
4101.130 -6.903 -61.365
4336.070 -8.075 -151.275
4584.480 -8.552 87.702
4847.120 -9.614 -64.912
5124.810 -11.216 115.372
5418.400 -12.552 -92.497
5728.810 -13.686 25.801
6057.010 -14.828 109.540
6404.000 -16.033 156.064
6770.880 -17.414 163.289
7158.770 -18.814 130.487
7568.890 -20.368 54.940
8002.500 -21.831 -65.137
8460.950 -23.305 125.873
8945.670 -24.791 -93.799
9458.160 -26.361 -7.190
10000.000 -27.917 22.874
