# Freq(Hz) SPL(dB) Phase (degrees)
10.000 50.916 -76.936
10.570 51.804 -81.190
11.180 52.696 -85.726
11.820 53.573 -90.466
12.500 54.448 -95.483
13.210 55.304 -100.703
13.970 56.163 -106.270
14.770 57.009 -112.112
15.620 57.850 -118.302
16.510 58.675 -124.771
17.460 59.497 -131.669
18.460 60.306 -138.931
19.510 61.097 -146.567
20.630 61.883 -154.738
21.810 62.651 -163.392
23.060 63.402 -172.625
24.380 64.127 177.533
25.780 64.823 166.975
27.260 65.474 155.671
28.820 66.064 143.604
30.470 66.576 130.699
32.220 66.985 116.923
34.060 67.262 102.458
36.010 67.387 87.321
38.080 67.341 71.674
40.260 67.121 55.869
42.560 66.736 40.095
45.000 66.205 24.435
47.580 65.555 9.046
50.310 64.811 -6.048
53.190 64.000 -20.822
56.230 63.143 -35.344
59.460 62.247 -49.779
62.860 61.331 -64.075
66.460 60.399 -78.397
70.270 59.456 -92.818
74.300 58.506 -107.403
78.550 57.554 -122.180
83.050 56.598 -137.275
87.810 55.639 -152.737
92.840 54.680 -168.612
98.160 53.720 175.025
103.780 52.761 158.135
109.730 51.799 140.619
116.020 50.838 122.444
122.660 49.878 103.574
129.690 48.917 83.892
137.120 47.956 63.367
144.970 46.995 41.939
153.280 46.033 19.496
162.060 45.071 -3.990
171.340 44.108 -28.603
181.160 43.144 -54.452
191.540 42.179 -81.590
202.510 41.213 -110.099
214.110 40.244 -140.083
226.380 39.272 -171.646
239.350 38.297 155.137
253.060 37.317 120.163
267.560 36.332 83.311
282.890 35.341 44.482
299.090 34.344 3.581
316.230 33.340 -39.561
334.340 32.331 -85.013
353.500 31.315 -132.973
373.750 30.294 176.462
395.160 29.270 123.111
417.800 28.240 66.791
441.730 27.206 7.339
467.040 26.163 -55.483
493.800 25.106 -121.851
522.090 24.028 168.053
552.000 22.923 94.054
583.620 21.789 16.004
617.050 20.631 -66.271
652.400 19.459 -153.001
689.780 18.282 115.536
729.290 17.105 19.069
771.080 15.927 -82.763
815.250 14.752 169.829
861.950 13.590 56.495
911.330 12.451 -63.137
963.540 11.352 170.572
1018.740 10.324 37.175
1077.110 9.400 -104.132
1138.810 8.569 105.397
1204.050 7.683 -53.893
1273.030 6.744 136.860
1345.960 5.748 -42.162
1423.070 4.759 128.441
1504.590 3.781 -72.503
1590.790 2.696 73.843
1681.920 1.393 -152.524
1778.280 -0.108 -31.982
1880.150 -1.834 74.674
1987.870 -3.885 166.610
2101.750 -6.361 -116.357
2222.150 -9.443 -54.455
2349.460 -13.415 -6.282
2484.060 -18.186 33.670
2626.360 -22.331 71.833
2776.820 -22.603 95.168
2935.900 -21.563 75.277
3104.100 -21.357 22.292
3281.930 -22.978 -57.048
3469.940 -25.691 -163.450
3668.730 -29.715 63.036
3878.910 -35.983 -94.914
4101.130 -52.186 106.779
4336.070 -43.471 14.139
4584.480 -39.633 125.355
4847.120 -39.985 -163.757
5124.810 -41.479 -128.275
5418.400 -46.033 -134.722
5728.810 -56.000 -171.628
6057.010 -66.903 163.873
6404.000 -58.987 133.392
6770.880 -63.734 -30.367
7158.770 -58.989 144.365
7568.890 -60.419 -132.596
8002.500 -60.604 -68.727
8460.950 -75.091 -86.793
8945.670 -65.033 -125.166
9458.160 -67.018 112.374
10000.000 -62.718 -117.045
