# Freq(Hz) SPL(dB) Phase (degrees)
10.000 52.355 -73.200
10.570 53.243 -77.241
11.180 54.134 -81.549
11.820 55.011 -86.050
12.500 55.886 -90.813
13.210 56.741 -95.766
13.970 57.599 -101.049
14.770 58.445 -106.592
15.620 59.286 -112.464
16.510 60.110 -118.600
17.460 60.931 -125.143
18.460 61.739 -132.030
19.510 62.530 -139.273
20.630 63.314 -147.024
21.810 64.081 -155.235
23.060 64.830 -164.000
24.380 65.554 -173.347
25.780 66.248 176.621
27.260 66.897 165.873
28.820 67.486 154.392
30.470 67.995 142.108
32.220 68.401 128.990
34.060 68.676 115.219
36.010 68.798 100.816
38.080 68.748 85.951
40.260 68.524 70.970
42.560 68.135 56.066
45.000 67.599 41.331
47.580 66.943 26.922
50.310 66.194 12.866
53.190 65.377 -0.811
56.230 64.513 -14.172
59.460 63.609 -27.371
62.860 62.685 -40.362
66.460 61.744 -53.300
70.270 60.792 -66.250
74.300 59.831 -79.275
78.550 58.867 -92.401
83.050 57.899 -105.741
87.810 56.928 -119.340
92.840 55.955 -133.238
98.160 54.981 -147.501
103.780 54.007 -162.164
109.730 53.030 -177.309
116.020 52.054 167.032
122.660 51.079 150.832
129.690 50.103 133.988
137.120 49.128 116.475
144.970 48.155 98.242
153.280 47.183 79.193
162.060 46.213 59.303
171.340 45.246 38.497
181.160 44.281 16.682
191.540 43.320 -6.192
202.510 42.362 -30.197
214.110 41.406 -55.429
226.380 40.453 -81.979
239.350 39.503 -109.919
253.060 38.553 -139.340
267.560 37.603 -170.353
282.890 36.652 156.955
299.090 35.699 122.497
316.230 34.742 86.125
334.340 33.778 47.779
353.500 32.805 7.299
373.750 31.820 -35.383
395.160 30.821 -80.382
417.800 29.805 -127.793
441.730 28.777 -177.667
467.040 27.746 129.883
493.800 26.735 74.754
522.090 25.771 16.730
552.000 24.880 -44.567
583.620 24.066 -109.629
617.050 23.301 -178.970
652.400 22.532 107.013
689.780 21.691 28.163
729.290 20.727 -55.392
771.080 19.624 -143.456
815.250 18.410 124.297
861.950 17.168 28.001
911.330 16.043 -72.562
963.540 15.207 -178.625
1018.740 14.654 67.482
1077.110 14.080 -56.050
1138.810 13.088 171.365
1204.050 11.416 31.795
1273.030 9.344 -111.174
1345.960 7.628 103.024
1423.070 6.838 -51.704
1504.590 6.238 138.775
1590.790 4.909 -43.072
1681.920 2.994 128.480
1778.280 1.429 -67.126
1880.150 0.106 83.961
1987.870 -1.690 -136.218
2101.750 -3.092 -3.898
2222.150 -3.602 110.550
2349.460 -4.918 -153.491
2484.060 -6.522 -67.055
2626.360 -7.426 2.409
2776.820 -8.675 53.312
2935.900 -9.669 85.627
3104.100 -11.529 95.942
3281.930 -13.412 95.790
3469.940 -14.874 67.901
3668.730 -16.827 21.224
3878.910 -19.030 -47.433
4101.130 -20.369 -143.040
4336.070 -22.774 99.800
4584.480 -24.739 -51.161
4847.120 -26.562 133.684
5124.810 -29.371 -71.044
5418.400 -31.982 48.292
5728.810 -34.423 136.737
6057.010 -36.959 -172.226
6404.000 -40.013 -161.508
6770.880 -43.269 174.652
7158.770 -47.798 105.725
7568.890 -53.818 3.214
8002.500 -59.151 -117.507
8460.950 -63.813 65.755
8945.670 -59.114 178.562
9458.160 -60.330 -114.741
10000.000 -59.300 -139.054
