# Freq(Hz) SPL(dB) Phase (degrees)
10.000 50.866 -77.079
10.570 51.754 -81.342
11.180 52.646 -85.886
11.820 53.524 -90.635
12.500 54.398 -95.662
13.210 55.254 -100.891
13.970 56.113 -106.470
14.770 56.960 -112.323
15.620 57.801 -118.526
16.510 58.626 -125.008
17.460 59.449 -131.919
18.460 60.257 -139.195
19.510 61.049 -146.846
20.630 61.836 -155.034
21.810 62.604 -163.704
23.060 63.355 -172.955
24.380 64.080 177.183
25.780 64.776 166.605
27.260 65.428 155.281
28.820 66.019 143.191
30.470 66.531 130.262
32.220 66.941 116.461
34.060 67.219 101.969
36.010 67.345 86.803
38.080 67.300 71.127
40.260 67.081 55.290
42.560 66.698 39.482
45.000 66.168 23.787
47.580 65.519 8.360
50.310 64.777 -6.774
53.190 63.968 -21.591
56.230 63.113 -36.158
59.460 62.219 -50.641
62.860 61.307 -64.987
66.460 60.378 -79.364
70.270 59.438 -93.842
74.300 58.492 -108.488
78.550 57.544 -123.330
83.050 56.593 -138.495
87.810 55.640 -154.031
92.840 54.687 -169.985
98.160 53.733 173.567
103.780 52.781 156.585
109.730 51.829 138.972
116.020 50.877 120.692
122.660 49.928 101.709
129.690 48.978 81.905
137.120 48.030 61.247
144.970 47.084 39.676
153.280 46.139 17.077
162.060 45.195 -6.579
171.340 44.254 -31.380
181.160 43.313 -57.434
191.540 42.374 -84.800
202.510 41.436 -113.561
214.110 40.498 -143.825
226.380 39.561 -175.700
239.350 38.623 150.734
253.060 37.685 115.370
267.560 36.744 78.079
282.890 35.801 38.759
299.090 34.856 -2.691
316.230 33.908 -46.448
334.340 32.958 -92.588
353.500 32.006 -141.318
373.750 31.054 167.253
395.160 30.103 112.929
417.800 29.154 55.505
441.730 28.206 -5.212
467.040 27.255 -69.502
493.800 26.295 -137.595
522.090 25.311 150.268
552.000 24.288 73.854
583.620 23.211 -7.030
617.050 22.066 -92.572
652.400 20.845 177.023
689.780 19.541 81.540
729.290 18.150 -19.213
771.080 16.665 -125.563
815.250 15.081 122.279
861.950 13.389 3.962
911.330 11.578 -120.869
963.540 9.631 107.363
1018.740 7.501 -31.856
1077.110 5.087 -179.002
1138.810 2.246 26.091
1204.050 -1.285 -135.881
1273.030 -5.620 57.701
1345.960 -10.712 -106.580
1423.070 -14.292 99.445
1504.590 -13.720 -68.537
1590.790 -12.300 95.219
1681.920 -11.316 -121.916
1778.280 -10.880 3.147
1880.150 -10.998 112.119
1987.870 -11.595 -154.712
2101.750 -12.692 -77.816
2222.150 -14.589 -18.222
2349.460 -17.520 27.100
2484.060 -21.340 61.661
2626.360 -25.650 89.181
2776.820 -28.008 119.841
2935.900 -25.193 113.808
3104.100 -23.181 64.328
3281.930 -22.509 -19.291
3469.940 -23.027 -132.395
3668.730 -24.819 85.092
3878.910 -28.139 -92.390
4101.130 -32.755 47.567
4336.070 -36.286 132.290
4584.480 -34.585 -171.507
4847.120 -33.910 -118.038
5124.810 -34.469 -101.886
5418.400 -37.602 -107.641
5728.810 -41.578 -162.712
6057.010 -49.199 133.600
6404.000 -51.388 31.944
6770.880 -50.159 -134.411
7158.770 -54.570 -9.676
7568.890 -67.055 62.482
8002.500 -69.659 110.499
8460.950 -76.479 -147.434
8945.670 -66.737 -146.871
9458.160 -71.716 -10.845
10000.000 -71.732 -174.164
