# Freq(Hz) SPL(dB) Phase (degrees)
10.000 53.664 -70.313
10.570 54.551 -74.189
11.180 55.443 -78.320
11.820 56.321 -82.636
12.500 57.196 -87.203
13.210 58.052 -91.951
13.970 58.911 -97.015
14.770 59.757 -102.326
15.620 60.599 -107.953
16.510 61.423 -113.832
17.460 62.246 -120.099
18.460 63.055 -126.697
19.510 63.847 -133.636
20.630 64.633 -141.063
21.810 65.402 -148.933
23.060 66.153 -157.335
24.380 66.878 -166.300
25.780 67.574 -175.927
27.260 68.226 173.755
28.820 68.818 162.726
30.470 69.330 150.921
32.220 69.740 138.312
34.060 70.019 125.074
36.010 70.145 111.239
38.080 70.102 96.976
40.260 69.883 82.630
42.560 69.501 68.395
45.000 68.973 54.372
47.580 68.326 40.715
50.310 67.587 27.456
53.190 66.781 14.620
56.230 65.929 2.147
59.460 65.040 -10.108
62.860 64.134 -22.105
66.460 63.212 -33.989
70.270 62.281 -45.826
74.300 61.345 -57.674
78.550 60.411 -69.561
83.050 59.475 -81.592
87.810 58.542 -93.811
92.840 57.612 -106.257
98.160 56.687 -118.993
103.780 55.769 -132.056
109.730 54.857 -145.524
116.020 53.954 -159.432
122.660 53.061 -173.813
129.690 52.178 171.233
137.120 51.307 155.670
144.970 50.449 139.442
153.280 49.604 122.446
162.060 48.772 104.644
171.340 47.954 85.954
181.160 47.147 66.272
191.540 46.350 45.538
202.510 45.561 23.673
214.110 44.776 0.581
226.380 43.990 -23.827
239.350 43.199 -49.611
253.060 42.396 -76.841
267.560 41.576 -105.595
282.890 40.733 -135.914
299.090 39.865 -167.823
316.230 38.969 158.606
334.340 38.050 123.394
353.500 37.115 86.459
373.750 36.179 47.782
395.160 35.263 7.241
417.800 34.388 -35.357
441.730 33.574 -80.275
467.040 32.825 -127.905
493.800 32.124 -178.608
522.090 31.433 127.327
552.000 30.706 69.785
583.620 29.912 8.863
617.050 29.058 -55.272
652.400 28.194 -122.622
689.780 27.380 166.455
729.290 26.632 91.347
771.080 25.909 11.428
815.250 25.154 -73.532
861.950 24.321 -163.622
911.330 23.393 101.124
963.540 22.360 0.660
1018.740 21.217 -105.009
1077.110 19.984 144.256
1138.810 18.752 28.625
1204.050 17.682 -92.289
1273.030 16.905 139.995
1345.960 16.370 3.645
1423.070 15.898 -142.305
1504.590 15.372 61.782
1590.790 14.619 -104.612
1681.920 13.432 79.736
1778.280 11.991 -103.386
1880.150 10.637 65.650
1987.870 9.650 -134.859
2101.750 9.062 11.298
2222.150 8.390 142.663
2349.460 7.476 -99.505
2484.060 6.500 5.247
2626.360 5.577 94.495
2776.820 4.340 167.063
2935.900 2.605 -134.472
3104.100 1.135 -88.979
3281.930 0.260 -62.770
3469.940 -0.672 -59.784
3668.730 -2.396 -77.126
3878.910 -4.132 -110.583
4101.130 -5.250 -167.125
4336.070 -6.560 110.529
4584.480 -7.820 3.361
4847.120 -9.445 -131.621
5124.810 -10.852 69.197
5418.400 -12.216 -123.356
5728.810 -13.785 15.943
6057.010 -14.976 119.927
6404.000 -16.317 -170.107
6770.880 -17.472 -138.372
7158.770 -18.825 -147.428
7568.890 -20.266 162.951
8002.500 -21.650 68.383
8460.950 -23.144 -72.172
8945.670 -24.645 98.460
9458.160 -26.186 -143.490
10000.000 -27.797 -79.305
