# Freq(Hz) SPL(dB) Phase (degrees)
10.000 53.433 -70.789
10.570 54.321 -74.692
11.180 55.212 -78.853
11.820 56.090 -83.199
12.500 56.964 -87.798
13.210 57.820 -92.580
13.970 58.679 -97.680
14.770 59.525 -103.029
15.620 60.366 -108.697
16.510 61.190 -114.618
17.460 62.013 -120.930
18.460 62.821 -127.576
19.510 63.612 -134.565
20.630 64.398 -142.046
21.810 65.165 -149.971
23.060 65.916 -158.434
24.380 66.641 -167.461
25.780 67.335 -177.155
27.260 67.986 172.456
28.820 68.576 161.353
30.470 69.087 149.469
32.220 69.496 136.776
34.060 69.773 123.451
36.010 69.897 109.523
38.080 69.851 95.161
40.260 69.630 80.710
42.560 69.245 66.366
45.000 68.714 52.226
47.580 68.063 38.446
50.310 67.319 25.057
53.190 66.509 12.083
56.230 65.652 -0.534
59.460 64.757 -12.943
62.860 63.843 -25.101
66.460 62.914 -37.157
70.270 61.974 -49.173
74.300 61.029 -61.211
78.550 60.083 -73.297
83.050 59.135 -85.537
87.810 58.187 -97.975
92.840 57.241 -110.650
98.160 56.298 -123.625
103.780 55.359 -136.935
109.730 54.424 -150.661
116.020 53.494 -164.833
122.660 52.573 -179.484
129.690 51.657 165.287
137.120 50.749 149.447
144.970 49.852 132.942
153.280 48.962 115.673
162.060 48.082 97.604
171.340 47.212 78.657
181.160 46.349 58.733
191.540 45.493 37.774
202.510 44.643 15.704
214.110 43.793 -7.570
226.380 42.941 -32.135
239.350 42.083 -58.052
253.060 41.214 -85.394
267.560 40.329 -114.242
282.890 39.424 -144.646
299.090 38.496 -176.643
316.230 37.543 149.681
334.340 36.568 114.325
353.500 35.574 77.195
373.750 34.574 38.261
395.160 33.581 -2.592
417.800 32.611 -45.524
441.730 31.681 -90.745
467.040 30.799 -138.587
493.800 29.959 170.621
522.090 29.134 116.554
552.000 28.286 58.977
583.620 27.366 -2.184
617.050 26.337 -66.831
652.400 25.190 -134.707
689.780 23.968 154.485
729.290 22.776 80.753
771.080 21.710 3.370
815.250 20.764 -78.571
861.950 19.862 -165.489
911.330 19.011 102.753
963.540 18.338 5.649
1018.740 17.868 -98.707
1077.110 17.295 148.059
1138.810 16.207 26.931
1204.050 14.557 -98.796
1273.030 12.816 132.748
1345.960 11.522 -0.712
1423.070 10.611 -142.564
1504.590 9.932 66.017
1590.790 9.285 -96.600
1681.920 8.316 90.404
1778.280 7.229 -91.290
1880.150 6.151 75.794
1987.870 4.570 -127.530
2101.750 3.160 23.268
2222.150 2.767 159.843
2349.460 2.117 -82.974
2484.060 0.450 20.863
2626.360 -1.114 117.858
2776.820 -1.679 -164.114
2935.900 -3.021 -105.513
3104.100 -4.457 -60.267
3281.930 -5.864 -34.579
3469.940 -7.121 -24.833
3668.730 -8.288 -42.482
3878.910 -10.591 -73.376
4101.130 -11.320 -130.045
4336.070 -13.358 148.573
4584.480 -15.070 42.802
4847.120 -16.580 -87.494
5124.810 -18.720 110.319
5418.400 -20.619 -80.170
5728.810 -22.634 60.054
6057.010 -25.489 163.417
6404.000 -27.587 -125.447
6770.880 -30.866 -93.846
7158.770 -33.740 -102.451
7568.890 -38.150 -148.504
8002.500 -43.181 115.816
8460.950 -50.604 -31.430
8945.670 -63.840 66.564
9458.160 -53.448 116.775
10000.000 -50.589 175.746
