# Freq(Hz) SPL(dB) Phase (degrees)
10.000 52.486 -72.890
10.570 53.374 -76.914
11.180 54.265 -81.202
11.820 55.143 -85.683
12.500 56.017 -90.425
13.210 56.872 -95.357
13.970 57.730 -100.616
14.770 58.576 -106.134
15.620 59.417 -111.980
16.510 60.241 -118.088
17.460 61.063 -124.601
18.460 61.870 -131.457
19.510 62.661 -138.667
20.630 63.446 -146.384
21.810 64.213 -154.558
23.060 64.962 -163.284
24.380 65.686 -172.590
25.780 66.379 177.422
27.260 67.029 166.720
28.820 67.617 155.288
30.470 68.126 143.055
32.220 68.533 129.993
34.060 68.808 116.279
36.010 68.929 101.937
38.080 68.880 87.137
40.260 68.656 72.225
42.560 68.267 57.393
45.000 67.732 42.735
47.580 67.076 28.407
50.310 66.327 14.438
53.190 65.510 0.852
56.230 64.646 -12.412
59.460 63.743 -25.509
62.860 62.820 -38.391
66.460 61.879 -51.213
70.270 60.927 -64.041
74.300 59.967 -76.936
78.550 59.005 -89.925
83.050 58.038 -103.120
87.810 57.068 -116.565
92.840 56.097 -130.300
98.160 55.125 -144.390
103.780 54.153 -158.869
109.730 53.180 -173.821
116.020 52.207 170.725
122.660 51.237 154.739
129.690 50.266 138.122
137.120 49.297 120.847
144.970 48.331 102.864
153.280 47.367 84.075
162.060 46.406 64.455
171.340 45.450 43.930
181.160 44.496 22.404
191.540 43.548 -0.172
202.510 42.603 -23.874
214.110 41.663 -48.795
226.380 40.726 -75.031
239.350 39.790 -102.652
253.060 38.856 -131.750
267.560 37.921 -162.434
282.890 36.983 165.211
299.090 36.041 131.102
316.230 35.092 95.099
334.340 34.133 57.150
353.500 33.162 17.106
373.750 32.178 -25.089
395.160 31.178 -69.536
417.800 30.166 -116.322
441.730 29.149 -165.504
467.040 28.141 142.785
493.800 27.169 88.394
522.090 26.259 31.039
552.000 25.427 -29.724
583.620 24.664 -94.411
617.050 23.924 -163.508
652.400 23.138 122.674
689.780 22.233 44.117
729.290 21.158 -38.865
771.080 19.916 -125.869
815.250 18.585 143.572
861.950 17.319 49.445
911.330 16.312 -49.156
963.540 15.648 -154.334
1018.740 15.132 91.674
1077.110 14.369 -31.804
1138.810 13.025 -163.082
1204.050 11.019 60.883
1273.030 8.964 -77.010
1345.960 7.695 140.146
1423.070 7.041 -14.744
1504.590 6.102 177.364
1590.790 4.586 0.672
1681.920 3.092 177.239
1778.280 1.925 -17.334
1880.150 0.497 135.970
1987.870 -0.973 -79.356
2101.750 -1.787 52.921
2222.150 -2.542 167.632
2349.460 -3.738 -92.928
2484.060 -5.296 -7.778
2626.360 -7.062 65.569
2776.820 -7.931 122.280
2935.900 -9.581 154.712
3104.100 -11.959 177.761
3281.930 -13.080 178.793
3469.940 -14.508 162.058
3668.730 -16.008 115.694
3878.910 -17.621 54.042
4101.130 -19.469 -38.946
4336.070 -21.442 -155.371
4584.480 -23.889 63.330
4847.120 -26.501 -105.151
5124.810 -28.883 57.603
5418.400 -30.932 -173.243
5728.810 -32.607 -78.226
6057.010 -35.669 -20.178
6404.000 -38.636 -0.494
6770.880 -43.242 -18.602
7158.770 -47.492 -76.947
7568.890 -50.987 -173.870
8002.500 -57.819 59.890
8460.950 -63.244 -99.094
8945.670 -62.205 52.851
9458.160 -58.633 113.588
10000.000 -60.014 96.410
