# Freq(Hz) SPL(dB) Phase (degrees)
10.000 53.519 -70.609
10.570 54.407 -74.502
11.180 55.299 -78.651
11.820 56.176 -82.986
12.500 57.051 -87.572
13.210 57.907 -92.342
13.970 58.765 -97.428
14.770 59.611 -102.763
15.620 60.453 -108.415
16.510 61.277 -114.320
17.460 62.099 -120.615
18.460 62.908 -127.243
19.510 63.699 -134.213
20.630 64.485 -141.674
21.810 65.253 -149.578
23.060 66.003 -158.018
24.380 66.728 -167.021
25.780 67.423 -176.690
27.260 68.075 172.948
28.820 68.665 161.873
30.470 69.176 150.019
32.220 69.585 137.358
34.060 69.862 124.066
36.010 69.987 110.172
38.080 69.941 95.848
40.260 69.721 81.437
42.560 69.337 67.134
45.000 68.806 53.038
47.580 68.156 39.304
50.310 67.413 25.964
53.190 66.604 13.043
56.230 65.748 0.480
59.460 64.854 -11.871
62.860 63.942 -23.969
66.460 63.014 -35.960
70.270 62.076 -47.909
74.300 61.132 -59.875
78.550 60.189 -71.886
83.050 59.243 -84.048
87.810 58.298 -96.403
92.840 57.356 -108.993
98.160 56.417 -121.878
103.780 55.482 -135.095
109.730 54.552 -148.723
116.020 53.627 -162.795
122.660 52.711 -177.344
129.690 51.802 167.533
137.120 50.901 151.800
144.970 50.011 135.404
153.280 49.129 118.245
162.060 48.257 100.286
171.340 47.395 81.449
181.160 46.541 61.635
191.540 45.693 40.786
202.510 44.850 18.826
214.110 44.008 -4.337
226.380 43.163 -28.789
239.350 42.309 -54.589
253.060 41.444 -81.808
267.560 40.560 -110.523
282.890 39.655 -140.780
299.090 38.726 -172.614
316.230 37.769 153.896
334.340 36.790 118.753
353.500 35.793 81.865
373.750 34.790 43.203
395.160 33.796 2.649
417.800 32.828 -39.967
441.730 31.902 -84.862
467.040 31.024 -132.371
493.800 30.184 177.185
522.090 29.356 123.510
552.000 28.502 66.408
583.620 27.583 5.839
617.050 26.574 -58.098
652.400 25.481 -125.234
689.780 24.354 164.531
729.290 23.267 90.982
771.080 22.260 13.417
815.250 21.293 -68.686
861.950 20.323 -155.338
911.330 19.427 113.640
963.540 18.769 17.345
1018.740 18.328 -86.468
1077.110 17.747 160.807
1138.810 16.636 40.495
1204.050 15.023 -84.346
1273.030 13.312 147.683
1345.960 11.926 14.976
1423.070 11.002 -124.758
1504.590 10.587 85.283
1590.790 10.106 -77.773
1681.920 9.062 109.230
1778.280 7.926 -71.579
1880.150 6.778 96.383
1987.870 5.143 -105.145
2101.750 3.774 47.196
2222.150 3.455 -173.826
2349.460 3.178 -55.796
2484.060 1.516 46.516
2626.360 -0.517 144.642
2776.820 -1.114 -132.357
2935.900 -1.945 -72.240
3104.100 -3.381 -27.589
3281.930 -4.898 -0.946
3469.940 -6.434 12.398
3668.730 -7.116 -1.231
3878.910 -9.419 -34.274
4101.130 -10.336 -86.481
4336.070 -12.222 -165.731
4584.480 -13.623 90.771
4847.120 -15.427 -37.445
5124.810 -17.362 163.615
5418.400 -19.027 -23.862
5728.810 -21.327 119.333
6057.010 -23.679 -134.816
6404.000 -25.911 -60.224
6770.880 -28.802 -25.644
7158.770 -31.605 -27.632
7568.890 -35.366 -71.050
8002.500 -39.815 -162.090
8460.950 -45.949 60.793
8945.670 -55.305 -147.708
9458.160 -57.339 -127.574
10000.000 -51.416 -83.474
