# Freq(Hz) SPL(dB) Phase (degrees)
10.000 51.067 -76.515
10.570 51.954 -80.745
11.180 52.846 -85.254
11.820 53.724 -89.968
12.500 54.598 -94.956
13.210 55.454 -100.146
13.970 56.312 -105.681
14.770 57.158 -111.489
15.620 58.000 -117.644
16.510 58.824 -124.075
17.460 59.646 -130.933
18.460 60.454 -138.152
19.510 61.246 -145.744
20.630 62.031 -153.868
21.810 62.799 -162.472
23.060 63.549 -171.652
24.380 64.274 178.562
25.780 64.968 168.063
27.260 65.619 156.822
28.820 66.209 144.821
30.470 66.719 131.986
32.220 67.128 118.284
34.060 67.404 103.897
36.010 67.528 88.843
38.080 67.481 73.284
40.260 67.259 57.572
42.560 66.873 41.896
45.000 66.340 26.340
47.580 65.688 11.061
50.310 64.942 -3.916
53.190 64.129 -18.567
56.230 63.268 -32.958
59.460 62.369 -47.254
62.860 61.451 -61.403
66.460 60.515 -75.569
70.270 59.568 -89.825
74.300 58.613 -104.234
78.550 57.656 -118.825
83.050 56.694 -133.723
87.810 55.729 -148.974
92.840 54.763 -164.627
98.160 53.795 179.248
103.780 52.826 162.610
109.730 51.855 145.363
116.020 50.882 127.475
122.660 49.910 108.911
129.690 48.935 89.556
137.120 47.958 69.380
144.970 46.980 48.326
153.280 45.999 26.286
162.060 45.015 3.231
171.340 44.030 -20.919
181.160 43.039 -46.266
191.540 42.045 -72.864
202.510 41.047 -100.786
214.110 40.043 -130.133
226.380 39.033 -161.002
239.350 38.015 166.537
253.060 36.990 132.392
267.560 35.956 96.448
282.890 34.913 58.616
299.090 33.862 18.812
316.230 32.801 -23.122
334.340 31.733 -67.245
353.500 30.658 -113.740
373.750 29.579 -162.691
395.160 28.497 145.737
417.800 27.415 91.381
441.730 26.333 34.102
467.040 25.252 -26.303
493.800 24.175 -89.974
522.090 23.106 -157.060
552.000 22.059 132.267
583.620 21.054 57.784
617.050 20.116 -20.858
652.400 19.254 -104.145
689.780 18.456 167.419
729.290 17.687 73.486
771.080 16.921 -26.234
815.250 16.154 -131.875
861.950 15.395 116.211
911.330 14.648 -2.420
963.540 13.910 -128.260
1018.740 13.163 98.079
1077.110 12.345 -44.048
1138.810 11.354 165.092
1204.050 10.160 6.022
1273.030 8.810 -161.448
1345.960 7.372 22.241
1423.070 5.840 -163.633
1504.590 4.174 0.645
1590.790 2.371 155.125
1681.920 0.584 -60.126
1778.280 -1.010 73.782
1880.150 -2.279 -164.869
1987.870 -3.265 -58.678
2101.750 -4.191 30.889
2222.150 -5.256 102.974
2349.460 -6.706 157.589
2484.060 -8.592 -163.782
2626.360 -10.658 -140.476
2776.820 -12.568 -132.912
2935.900 -13.694 -144.511
3104.100 -14.243 177.180
3281.930 -15.645 112.478
3469.940 -17.599 23.593
3668.730 -19.979 -86.122
3878.910 -21.658 143.180
4101.130 -22.415 -19.858
4336.070 -23.213 139.553
4584.480 -25.111 -96.829
4847.120 -28.210 -2.057
5124.810 -31.117 65.571
5418.400 -32.840 95.222
5728.810 -35.108 76.380
6057.010 -38.468 22.282
6404.000 -40.672 -81.938
6770.880 -43.576 132.206
7158.770 -47.872 -67.082
7568.890 -52.945 41.649
8002.500 -59.658 95.184
8460.950 -80.084 167.005
8945.670 -66.371 -167.860
9458.160 -61.890 57.134
10000.000 -62.327 -135.720
