# Freq(Hz) SPL(dB) Phase (degrees)
10.000 52.153 -73.687
10.570 53.041 -77.756
11.180 53.932 -82.093
11.820 54.809 -86.625
12.500 55.683 -91.421
13.210 56.539 -96.409
13.970 57.397 -101.729
14.770 58.243 -107.311
15.620 59.084 -113.225
16.510 59.907 -119.404
17.460 60.729 -125.992
18.460 61.537 -132.928
19.510 62.327 -140.222
20.630 63.112 -148.028
21.810 63.879 -156.296
23.060 64.628 -165.122
24.380 65.352 -174.533
25.780 66.045 175.367
27.260 66.695 164.548
28.820 67.283 152.991
30.470 67.792 140.627
32.220 68.198 127.425
34.060 68.473 113.564
36.010 68.594 99.067
38.080 68.545 84.102
40.260 68.321 69.016
42.560 67.931 54.001
45.000 67.395 39.149
47.580 66.739 24.616
50.310 65.989 10.429
53.190 65.172 -3.386
56.230 64.307 -16.892
59.460 63.403 -30.244
62.860 62.479 -43.396
66.460 61.537 -56.503
70.270 60.583 -69.631
74.300 59.621 -82.843
78.550 58.657 -96.165
83.050 57.687 -109.711
87.810 56.714 -123.524
92.840 55.740 -137.645
98.160 54.763 -152.140
103.780 53.787 -167.043
109.730 52.808 177.563
116.020 51.829 161.651
122.660 50.851 145.191
129.690 49.873 128.085
137.120 48.896 110.309
144.970 47.922 91.814
153.280 46.950 72.508
162.060 45.983 52.367
171.340 45.022 31.322
181.160 44.068 9.279
191.540 43.124 -13.810
202.510 42.192 -38.020
214.110 41.274 -63.450
226.380 40.372 -90.202
239.350 39.490 -118.364
253.060 38.627 -148.046
267.560 37.785 -179.387
282.890 36.963 147.495
299.090 36.160 112.481
316.230 35.371 75.391
334.340 34.594 36.138
353.500 33.821 -5.461
373.750 33.046 -49.490
395.160 32.263 -96.078
417.800 31.466 -145.335
441.730 30.654 162.673
467.040 29.827 107.827
493.800 28.996 50.053
522.090 28.178 -10.779
552.000 27.394 -74.884
583.620 26.661 -142.556
617.050 25.988 145.846
652.400 25.374 69.943
689.780 24.815 -10.633
729.290 24.301 -96.241
771.080 23.811 172.639
815.250 23.308 75.706
861.950 22.748 -27.293
911.330 22.102 -136.464
963.540 21.366 108.119
1018.740 20.548 -13.706
1077.110 19.659 -142.181
1138.810 18.741 82.503
1204.050 17.808 -59.901
1273.030 16.958 149.506
1345.960 16.128 -10.185
1423.070 15.235 -179.546
1504.590 14.208 1.224
1590.790 13.013 172.228
1681.920 11.762 -26.394
1778.280 10.585 124.133
1880.150 9.432 -97.723
1987.870 8.153 27.327
2101.750 6.692 139.600
2222.150 5.149 -121.011
2349.460 3.647 -35.533
2484.060 2.183 34.730
2626.360 0.771 88.974
2776.820 -0.564 125.886
2935.900 -1.876 144.221
3104.100 -3.115 143.508
3281.930 -4.174 122.055
3469.940 -5.188 77.762
3668.730 -6.079 9.518
3878.910 -7.009 -85.129
4101.130 -8.152 153.146
4336.070 -9.483 3.757
4584.480 -11.037 -174.850
4847.120 -12.719 -24.200
5124.810 -14.655 94.453
5418.400 -16.880 179.119
5728.810 -19.184 -130.446
6057.010 -21.548 -118.467
6404.000 -24.040 -147.884
6770.880 -26.889 140.781
7158.770 -30.156 23.710
7568.890 -33.700 -139.414
8002.500 -37.949 9.711
8460.950 -42.010 106.211
8945.670 -47.095 147.693
9458.160 -54.725 92.393
10000.000 -57.410 -94.244
