# Freq(Hz) SPL(dB) Phase (degrees)
10.000 50.858 -77.101
10.570 51.746 -81.365
11.180 52.638 -85.910
11.820 53.516 -90.661
12.500 54.390 -95.689
13.210 55.246 -100.920
13.970 56.105 -106.500
14.770 56.951 -112.356
15.620 57.793 -118.560
16.510 58.617 -125.044
17.460 59.440 -131.957
18.460 60.249 -139.235
19.510 61.041 -146.889
20.630 61.827 -155.079
21.810 62.595 -163.752
23.060 63.346 -173.006
24.380 64.071 177.130
25.780 64.767 166.549
27.260 65.418 155.221
28.820 66.009 143.128
30.470 66.521 130.196
32.220 66.930 116.391
34.060 67.208 101.895
36.010 67.334 86.725
38.080 67.289 71.044
40.260 67.069 55.203
42.560 66.685 39.391
45.000 66.155 23.690
47.580 65.505 8.258
50.310 64.763 -6.881
53.190 63.953 -21.704
56.230 63.097 -36.277
59.460 62.202 -50.766
62.860 61.289 -65.119
66.460 60.359 -79.502
70.270 59.418 -93.987
74.300 58.470 -108.641
78.550 57.520 -123.490
83.050 56.567 -138.662
87.810 55.612 -154.206
92.840 54.657 -170.168
98.160 53.701 173.377
103.780 52.746 156.388
109.730 51.790 138.768
116.020 50.834 120.481
122.660 49.881 101.493
129.690 48.926 81.684
137.120 47.973 61.023
144.970 47.021 39.450
153.280 46.069 16.852
162.060 45.118 -6.801
171.340 44.169 -31.594
181.160 43.219 -57.636
191.540 42.269 -84.984
202.510 41.320 -113.719
214.110 40.371 -143.949
226.380 39.420 -175.779
239.350 38.469 150.711
253.060 37.515 115.418
267.560 36.559 78.214
282.890 35.600 39.000
299.090 34.638 -2.323
316.230 33.672 -45.932
334.340 32.703 -91.898
353.500 31.732 -140.425
373.750 30.761 168.382
395.160 29.790 114.335
417.800 28.819 57.240
441.730 27.850 -3.082
467.040 26.877 -66.888
493.800 25.898 -134.384
522.090 24.903 154.212
552.000 23.883 78.682
583.620 22.829 -1.164
617.050 21.737 -85.525
652.400 20.605 -174.630
689.780 19.434 91.280
729.290 18.223 -8.022
771.080 16.973 -112.890
815.250 15.687 136.436
861.950 14.365 19.556
911.330 13.003 -103.966
963.540 11.581 125.449
1018.740 10.070 -12.537
1077.110 8.446 -158.143
1138.810 6.797 48.446
1204.050 4.969 -112.763
1273.030 3.213 76.849
1345.960 1.388 -103.450
1423.070 -0.584 66.185
1504.590 -2.665 -134.162
1590.790 -4.718 14.801
1681.920 -6.718 151.237
1778.280 -8.764 -86.066
1880.150 -10.883 21.819
1987.870 -13.154 112.474
2101.750 -15.904 -175.624
2222.150 -19.017 -124.086
2349.460 -21.778 -98.269
2484.060 -23.005 -100.882
2626.360 -22.488 -119.547
2776.820 -21.176 -146.974
2935.900 -19.932 169.478
3104.100 -19.090 106.995
3281.930 -18.904 20.908
3469.940 -19.116 -89.512
3668.730 -19.865 133.730
3878.910 -21.389 -29.664
4101.130 -23.290 136.451
4336.070 -25.921 -85.883
4584.480 -29.335 21.313
4847.120 -33.207 96.529
5124.810 -37.743 139.373
5418.400 -42.696 150.215
5728.810 -46.055 124.201
6057.010 -52.360 49.037
6404.000 -60.057 -65.677
6770.880 -62.337 -109.090
7158.770 -62.583 15.470
7568.890 -63.815 67.387
8002.500 -68.711 110.093
8460.950 -87.731 103.401
8945.670 -69.423 156.794
9458.160 -70.491 -14.095
10000.000 -68.716 122.751
