# Freq(Hz) SPL(dB) Phase (degrees)
10.000 52.534 -72.779
10.570 53.422 -76.795
11.180 54.313 -81.077
11.820 55.191 -85.551
12.500 56.065 -90.285
13.210 56.921 -95.209
13.970 57.779 -100.460
14.770 58.625 -105.968
15.620 59.466 -111.805
16.510 60.289 -117.903
17.460 61.111 -124.405
18.460 61.919 -131.249
19.510 62.710 -138.448
20.630 63.495 -146.152
21.810 64.262 -154.312
23.060 65.011 -163.023
24.380 65.735 -172.314
25.780 66.429 177.714
27.260 67.079 167.030
28.820 67.668 155.616
30.470 68.177 143.403
32.220 68.584 130.361
34.060 68.860 116.669
36.010 68.982 102.352
38.080 68.933 87.577
40.260 68.710 72.692
42.560 68.322 57.889
45.000 67.787 43.262
47.580 67.132 28.968
50.310 66.384 15.034
53.190 65.569 1.487
56.230 64.706 -11.735
59.460 63.805 -24.786
62.860 62.883 -37.620
66.460 61.945 -50.389
70.270 60.996 -63.159
74.300 60.039 -75.991
78.550 59.080 -88.911
83.050 58.116 -102.030
87.810 57.151 -115.391
92.840 56.186 -129.034
98.160 55.220 -143.022
103.780 54.256 -157.389
109.730 53.292 -172.216
116.020 52.331 172.468
122.660 51.373 156.636
129.690 50.419 140.189
137.120 49.470 123.102
144.970 48.528 105.325
153.280 47.593 86.763
162.060 46.669 67.388
171.340 45.756 47.125
181.160 44.856 25.875
191.540 43.972 3.582
202.510 43.105 -19.839
214.110 42.256 -44.494
226.380 41.425 -70.494
239.350 40.613 -97.929
253.060 39.818 -126.912
267.560 39.037 -157.575
282.890 38.266 169.977
299.090 37.502 135.646
316.230 36.737 99.283
334.340 35.967 60.838
353.500 35.185 20.170
373.750 34.388 -22.757
395.160 33.575 -68.025
417.800 32.748 -115.702
441.730 31.919 -165.832
467.040 31.106 141.461
493.800 30.337 86.025
522.090 29.644 27.574
552.000 29.046 -34.335
583.620 28.539 -100.211
617.050 28.093 -170.532
652.400 27.660 114.346
689.780 27.194 34.223
729.290 26.656 -50.957
771.080 26.024 -141.279
815.250 25.289 123.313
861.950 24.464 22.769
911.330 23.579 -83.014
963.540 22.689 165.699
1018.740 21.844 48.319
1077.110 21.045 -76.073
1138.810 20.211 151.749
1204.050 19.252 11.931
1273.030 18.150 -135.656
1345.960 16.942 69.071
1423.070 15.704 -94.158
1504.590 14.522 93.757
1590.790 13.333 -88.482
1681.920 12.005 78.974
1778.280 10.552 -123.499
1880.150 9.132 24.087
1987.870 7.922 160.167
2101.750 6.850 -77.083
2222.150 5.819 31.557
2349.460 4.826 125.609
2484.060 3.883 -156.106
2626.360 2.955 -94.709
2776.820 1.934 -51.356
2935.900 0.724 -26.214
3104.100 -0.520 -19.664
3281.930 -1.847 -34.107
3469.940 -3.440 -69.693
3668.730 -5.256 -127.222
3878.910 -7.284 154.434
4101.130 -9.027 52.893
4336.070 -10.598 -74.761
4584.480 -11.793 128.883
4847.120 -12.967 -58.974
5124.810 -14.198 80.448
5418.400 -15.706 -174.977
5728.810 -17.466 -105.757
6057.010 -19.502 -72.604
6404.000 -21.791 -78.380
6770.880 -24.135 -123.222
7158.770 -26.474 148.779
7568.890 -28.784 13.775
8002.500 -31.243 -170.737
8460.950 -33.945 -47.351
8945.670 -37.022 20.714
9458.160 -40.794 31.214
10000.000 -45.235 -19.837
