# Freq(Hz) SPL(dB) Phase (degrees)
10.000 51.325 -75.811
10.570 52.213 -80.001
11.180 53.104 -84.468
11.820 53.982 -89.136
12.500 54.856 -94.076
13.210 55.712 -99.216
13.970 56.570 -104.698
14.770 57.416 -110.449
15.620 58.258 -116.544
16.510 59.082 -122.913
17.460 59.904 -129.704
18.460 60.712 -136.853
19.510 61.503 -144.371
20.630 62.289 -152.416
21.810 63.056 -160.936
23.060 63.806 -170.028
24.380 64.531 -179.722
25.780 65.226 169.878
27.260 65.876 158.742
28.820 66.466 146.850
30.470 66.976 134.132
32.220 67.384 120.554
34.060 67.661 106.297
36.010 67.784 91.379
38.080 67.737 75.967
40.260 67.515 60.409
42.560 67.129 44.895
45.000 66.595 29.512
47.580 65.942 14.416
50.310 65.196 -0.368
53.190 64.383 -14.815
56.230 63.522 -28.991
59.460 62.623 -43.059
62.860 61.704 -56.966
66.460 60.767 -70.877
70.270 59.819 -84.862
74.300 58.864 -98.985
78.550 57.906 -113.275
83.050 56.943 -127.852
87.810 55.978 -142.765
92.840 55.011 -158.059
98.160 54.042 -173.806
103.780 53.073 169.955
109.730 52.101 153.132
116.020 51.128 135.691
122.660 50.156 117.599
129.690 49.180 98.742
137.120 48.203 79.092
144.970 47.225 58.591
153.280 46.244 37.134
162.060 45.261 14.691
171.340 44.276 -8.816
181.160 43.287 -33.489
191.540 42.293 -59.381
202.510 41.295 -86.567
214.110 40.291 -115.145
226.380 39.280 -145.212
239.350 38.259 -176.836
253.060 37.230 149.891
267.560 36.188 114.858
282.890 35.134 77.982
299.090 34.067 39.184
316.230 32.987 -1.688
334.340 31.895 -44.688
353.500 30.792 -89.995
373.750 29.681 -137.699
395.160 28.562 172.031
417.800 27.436 119.018
441.730 26.300 63.113
467.040 25.144 4.125
493.800 23.965 -58.039
522.090 22.762 -123.437
552.000 21.558 167.870
583.620 20.397 95.698
617.050 19.326 19.557
652.400 18.353 -61.319
689.780 17.419 -147.649
729.290 16.428 120.236
771.080 15.290 22.295
815.250 13.952 -81.129
861.950 12.398 170.370
911.330 10.673 57.322
963.540 8.917 -59.750
1018.740 7.406 178.943
1077.110 6.410 51.395
1138.810 5.907 -85.491
1204.050 5.520 126.513
1273.030 5.031 -32.559
1345.960 4.268 157.717
1423.070 3.140 -22.046
1504.590 1.608 149.237
1590.790 -0.154 -46.663
1681.920 -1.495 110.573
1778.280 -1.891 -105.089
1880.150 -2.027 20.820
1987.870 -2.670 129.268
2101.750 -3.983 -136.577
2222.150 -5.695 -54.768
2349.460 -7.432 14.334
2484.060 -8.774 68.824
2626.360 -9.529 102.899
2776.820 -10.716 112.315
2935.900 -13.280 102.820
3104.100 -15.984 82.632
3281.930 -17.070 41.007
3469.940 -18.676 -33.224
3668.730 -22.140 -127.686
3878.910 -23.907 128.673
4101.130 -24.279 -21.608
4336.070 -27.125 162.147
4584.480 -28.000 -37.943
4847.120 -29.326 76.157
5124.810 -32.503 162.667
5418.400 -35.126 -153.616
5728.810 -39.129 -141.217
6057.010 -42.519 -157.123
6404.000 -46.867 132.069
6770.880 -49.333 24.205
7158.770 -53.340 -124.484
7568.890 -57.867 27.934
8002.500 -62.370 115.078
8460.950 -70.112 -125.832
8945.670 -85.143 -176.382
9458.160 -66.317 -140.341
10000.000 -66.944 45.699
