# Freq(Hz) SPL(dB) Phase (degrees)
10.000 52.748 -72.287
10.570 53.635 -76.276
11.180 54.527 -80.527
11.820 55.404 -84.970
12.500 56.278 -89.670
13.210 57.134 -94.559
13.970 57.992 -99.773
14.770 58.838 -105.242
15.620 59.679 -111.037
16.510 60.502 -117.091
17.460 61.324 -123.547
18.460 62.132 -130.342
19.510 62.923 -137.489
20.630 63.708 -145.138
21.810 64.475 -153.241
23.060 65.224 -161.890
24.380 65.948 -171.116
25.780 66.642 178.980
27.260 67.292 168.369
28.820 67.880 157.031
30.470 68.389 144.898
32.220 68.796 131.942
34.060 69.071 118.340
36.010 69.194 104.118
38.080 69.145 89.444
40.260 68.921 74.665
42.560 68.533 59.974
45.000 67.998 45.465
47.580 67.343 31.296
50.310 66.595 17.494
53.190 65.779 4.085
56.230 64.916 -8.992
59.460 64.014 -21.889
62.860 63.093 -34.561
66.460 62.154 -47.160
70.270 61.204 -59.751
74.300 60.247 -72.396
78.550 59.288 -85.120
83.050 58.324 -98.035
87.810 57.359 -111.183
92.840 56.393 -124.604
98.160 55.426 -138.363
103.780 54.461 -152.493
109.730 53.496 -167.076
116.020 52.532 177.858
122.660 51.573 162.279
129.690 50.614 146.089
137.120 49.660 129.259
144.970 48.710 111.738
153.280 47.764 93.431
162.060 46.824 74.307
171.340 45.890 54.292
181.160 44.962 33.289
191.540 44.039 11.245
202.510 43.123 -11.916
214.110 42.212 -36.290
226.380 41.303 -61.972
239.350 40.396 -89.033
253.060 39.488 -117.560
267.560 38.575 -147.658
282.890 37.656 -179.405
299.090 36.728 147.129
316.230 35.786 111.818
334.340 34.831 74.628
353.500 33.859 35.431
373.750 32.873 -5.811
395.160 31.876 -49.187
417.800 30.877 -94.790
441.730 29.891 -142.709
467.040 28.938 166.854
493.800 28.041 113.644
522.090 27.213 57.271
552.000 26.447 -2.748
583.620 25.704 -66.874
617.050 24.918 -135.435
652.400 24.008 151.488
689.780 22.906 74.167
729.290 21.591 -6.762
771.080 20.144 -90.668
815.250 18.760 -177.320
861.950 17.662 92.198
911.330 16.910 -4.327
963.540 16.302 -108.817
1018.740 15.514 138.311
1077.110 14.284 18.157
1138.810 12.584 -106.866
1204.050 10.768 125.060
1273.030 9.423 -7.934
1345.960 8.481 -149.843
1423.070 7.613 58.643
1504.590 6.822 -102.578
1590.790 5.970 85.088
1681.920 4.799 -97.525
1778.280 3.496 70.917
1880.150 2.289 -131.440
1987.870 0.863 14.174
2101.750 -0.587 150.773
2222.150 -1.338 -87.348
2349.460 -2.838 15.417
2484.060 -5.284 111.849
2626.360 -6.095 -162.548
2776.820 -6.868 -101.866
2935.900 -8.135 -57.436
3104.100 -9.304 -30.234
3281.930 -10.974 -23.893
3469.940 -12.566 -36.690
3668.730 -14.493 -73.069
3878.910 -16.639 -122.488
4101.130 -18.188 156.619
4336.070 -19.953 54.268
4584.480 -21.910 -75.737
4847.120 -23.952 125.079
5124.810 -26.561 -61.379
5418.400 -28.624 80.195
5728.810 -30.847 -171.972
6057.010 -33.614 -99.526
6404.000 -37.033 -64.621
6770.880 -40.878 -62.896
7158.770 -44.938 -104.738
7568.890 -49.901 174.092
8002.500 -58.107 57.812
8460.950 -65.144 -51.528
8945.670 -59.467 119.695
9458.160 -56.940 -157.549
10000.000 -55.724 -135.483
