# Freq(Hz) SPL(dB) Phase (degrees)
10.000 50.883 -77.031
10.570 51.771 -81.290
11.180 52.663 -85.831
11.820 53.540 -90.578
12.500 54.415 -95.601
13.210 55.271 -100.828
13.970 56.129 -106.402
14.770 56.976 -112.252
15.620 57.817 -118.450
16.510 58.642 -124.928
17.460 59.464 -131.834
18.460 60.273 -139.105
19.510 61.065 -146.752
20.630 61.851 -154.934
21.810 62.619 -163.598
23.060 63.369 -172.843
24.380 64.095 177.302
25.780 64.790 166.731
27.260 65.442 155.413
28.820 66.032 143.331
30.470 66.544 130.411
32.220 66.953 116.618
34.060 67.231 102.136
36.010 67.356 86.979
38.080 67.311 71.313
40.260 67.091 55.488
42.560 66.707 39.691
45.000 66.176 24.008
47.580 65.526 8.595
50.310 64.783 -6.525
53.190 63.973 -21.328
56.230 63.116 -35.879
59.460 62.221 -50.345
62.860 61.306 -64.673
66.460 60.375 -79.031
70.270 59.433 -93.488
74.300 58.485 -108.112
78.550 57.534 -122.931
83.050 56.579 -138.070
87.810 55.623 -153.579
92.840 54.666 -169.504
98.160 53.708 174.081
103.780 52.751 157.134
109.730 51.792 139.558
116.020 50.834 121.319
122.660 49.878 102.382
129.690 48.920 82.627
137.120 47.963 62.024
144.970 47.007 40.513
153.280 46.051 17.982
162.060 45.095 -5.600
171.340 44.139 -30.316
181.160 43.183 -56.275
191.540 42.226 -83.533
202.510 41.269 -112.171
214.110 40.311 -142.295
226.380 39.351 -174.011
239.350 38.388 152.605
253.060 37.422 117.450
267.560 36.453 80.398
282.890 35.479 41.350
299.090 34.501 0.208
316.230 33.517 -43.199
334.340 32.529 -88.944
353.500 31.537 -137.226
373.750 30.543 171.851
395.160 29.546 118.105
417.800 28.548 61.343
441.730 27.547 1.396
467.040 26.540 -61.985
493.800 25.522 -128.995
522.090 24.486 160.165
552.000 23.421 85.297
583.620 22.323 6.229
617.050 21.190 -77.223
652.400 20.024 -165.281
689.780 18.830 101.808
729.290 17.609 3.806
771.080 16.361 -99.634
815.250 15.089 151.269
861.950 13.796 36.159
911.330 12.481 -85.336
963.540 11.140 146.466
1018.740 9.779 11.317
1077.110 8.432 -131.138
1138.810 7.196 78.209
1204.050 5.925 -80.571
1273.030 4.722 110.784
1345.960 3.488 -67.722
1423.070 2.265 103.686
1504.590 1.131 -95.954
1590.790 0.049 51.713
1681.920 -1.135 -174.028
1778.280 -2.452 -53.532
1880.150 -3.909 52.328
1987.870 -5.591 142.246
2101.750 -7.614 -144.223
2222.150 -10.005 -88.208
2349.460 -12.867 -51.852
2484.060 -16.390 -36.891
2626.360 -20.398 -46.504
2776.820 -24.020 -87.386
2935.900 -25.822 -155.540
3104.100 -25.959 123.630
3281.930 -26.228 32.105
3469.940 -27.042 -77.169
3668.730 -28.705 151.428
3878.910 -31.157 -0.099
4101.130 -33.382 -173.633
4336.070 -34.131 -10.428
4584.480 -33.767 112.628
4847.120 -33.914 -170.005
5124.810 -35.071 -133.950
5418.400 -38.517 -140.758
5728.810 -42.590 -177.201
6057.010 -49.262 120.986
6404.000 -51.310 30.369
6770.880 -51.226 -139.944
7158.770 -54.673 3.329
7568.890 -59.433 96.827
8002.500 -69.077 70.348
8460.950 -76.503 -153.150
8945.670 -68.210 165.618
9458.160 -68.005 -26.597
10000.000 -71.539 56.161
