# Freq(Hz) SPL(dB) Phase (degrees)
10.000 51.851 -74.439
10.570 52.738 -78.551
11.180 53.630 -82.933
11.820 54.507 -87.514
12.500 55.381 -92.361
13.210 56.237 -97.403
13.970 57.095 -102.780
14.770 57.941 -108.422
15.620 58.782 -114.400
16.510 59.606 -120.646
17.460 60.427 -127.307
18.460 61.235 -134.318
19.510 62.026 -141.691
20.630 62.811 -149.582
21.810 63.578 -157.940
23.060 64.327 -166.860
24.380 65.051 -176.372
25.780 65.745 173.422
27.260 66.395 162.490
28.820 66.983 150.814
30.470 67.492 138.323
32.220 67.899 124.987
34.060 68.174 110.985
36.010 68.296 96.338
38.080 68.247 81.213
40.260 68.024 65.958
42.560 67.635 50.765
45.000 67.099 35.722
47.580 66.444 20.986
50.310 65.695 6.585
53.190 64.879 -7.458
56.230 64.014 -21.206
59.460 63.111 -34.818
62.860 62.188 -48.244
66.460 61.247 -61.644
70.270 60.294 -75.085
74.300 59.333 -88.631
78.550 58.369 -102.309
83.050 57.400 -116.237
87.810 56.427 -130.459
92.840 55.453 -145.018
98.160 54.476 -159.984
103.780 53.498 -175.391
109.730 52.517 168.672
116.020 51.534 152.174
122.660 50.551 135.084
129.690 49.565 117.298
137.120 48.578 98.788
144.970 47.590 79.502
153.280 46.598 59.341
162.060 45.606 38.280
171.340 44.612 16.247
181.160 43.615 -6.855
191.540 42.616 -31.071
202.510 41.615 -56.472
214.110 40.610 -83.149
226.380 39.603 -111.192
239.350 38.592 -140.665
253.060 37.579 -171.655
267.560 36.561 155.730
282.890 35.541 121.408
299.090 34.521 85.290
316.230 33.500 47.222
334.340 32.481 7.128
353.500 31.464 -35.182
373.750 30.450 -79.819
395.160 29.434 -126.959
417.800 28.413 -176.765
441.730 27.378 130.645
467.040 26.323 75.125
493.800 25.247 16.603
522.090 24.161 -45.019
552.000 23.079 -109.924
583.620 22.016 -178.396
617.050 20.964 109.223
652.400 19.896 32.693
689.780 18.794 -48.002
729.290 17.683 -132.730
771.080 16.647 138.321
815.250 15.780 44.488
861.950 15.095 -55.515
911.330 14.473 -162.769
963.540 13.752 82.421
1018.740 12.802 -39.583
1077.110 11.579 -167.952
1138.810 10.162 58.673
1204.050 9.048 -80.398
1273.030 8.361 132.246
1345.960 7.834 -26.752
1423.070 6.986 162.708
1504.590 5.639 -16.960
1590.790 4.092 156.555
1681.920 3.045 -38.282
1778.280 2.448 112.195
1880.150 1.420 -113.252
1987.870 -0.374 9.970
2101.750 -2.141 125.312
2222.150 -3.074 -134.227
2349.460 -4.326 -54.615
2484.060 -6.640 11.068
2626.360 -8.690 67.478
2776.820 -9.936 102.347
2935.900 -12.269 115.778
3104.100 -14.642 119.131
3281.930 -16.061 96.559
3469.940 -18.616 55.578
3668.730 -19.580 -7.280
3878.910 -21.811 -100.439
4101.130 -22.801 146.672
4336.070 -24.721 -2.655
4584.480 -26.626 -177.071
4847.120 -28.974 -22.888
5124.810 -31.751 97.604
5418.400 -34.596 -169.322
5728.810 -38.365 -113.642
6057.010 -40.911 -93.646
6404.000 -44.022 -108.305
6770.880 -48.165 -171.208
7158.770 -51.395 70.566
7568.890 -57.140 -81.674
8002.500 -62.284 83.910
8460.950 -68.170 -109.285
8945.670 -65.905 -7.181
9458.160 -63.374 -21.909
10000.000 -62.153 -84.325
