# Freq(Hz) SPL(dB) Phase (degrees)
10.000 53.254 -71.171
10.570 54.141 -75.096
11.180 55.033 -79.280
11.820 55.911 -83.651
12.500 56.785 -88.276
13.210 57.641 -93.085
13.970 58.500 -98.214
14.770 59.346 -103.594
15.620 60.187 -109.293
16.510 61.012 -115.248
17.460 61.834 -121.597
18.460 62.642 -128.281
19.510 63.434 -135.310
20.630 64.220 -142.834
21.810 64.988 -150.804
23.060 65.738 -159.314
24.380 66.463 -168.392
25.780 67.158 -178.138
27.260 67.810 171.416
28.820 68.400 160.254
30.470 68.911 148.307
32.220 69.320 135.548
34.060 69.598 122.153
36.010 69.722 108.151
38.080 69.677 93.711
40.260 69.457 79.179
42.560 69.072 64.748
45.000 68.542 50.516
47.580 67.892 36.639
50.310 67.149 23.149
53.190 66.340 10.068
56.230 65.484 -2.662
59.460 64.590 -15.190
62.860 63.678 -27.472
66.460 62.751 -39.658
70.270 61.813 -51.812
74.300 60.869 -63.993
78.550 59.926 -76.229
83.050 58.981 -88.625
87.810 58.036 -101.226
92.840 57.095 -114.070
98.160 56.156 -127.220
103.780 55.223 -140.711
109.730 54.294 -154.622
116.020 53.372 -168.985
122.660 52.460 176.168
129.690 51.556 160.739
137.120 50.663 144.696
144.970 49.783 127.982
153.280 48.915 110.499
162.060 48.063 92.208
171.340 47.226 73.027
181.160 46.405 52.852
191.540 45.599 31.618
202.510 44.807 9.242
214.110 44.027 -14.383
226.380 43.256 -39.356
239.350 42.490 -65.754
253.060 41.724 -93.665
267.560 40.953 -123.186
282.890 40.170 -154.381
299.090 39.372 172.699
316.230 38.554 137.962
334.340 37.715 101.409
353.500 36.859 62.954
373.750 35.993 22.589
395.160 35.134 -19.769
417.800 34.304 -64.246
441.730 33.528 -111.033
467.040 32.829 -160.486
493.800 32.214 146.973
522.090 31.665 90.872
552.000 31.133 30.816
583.620 30.555 -33.383
617.050 29.876 -101.700
652.400 29.064 -173.962
689.780 28.125 110.065
729.290 27.099 30.582
771.080 26.062 -52.526
815.250 25.094 -139.659
861.950 24.229 128.367
911.330 23.432 30.819
963.540 22.649 -72.625
1018.740 21.876 177.897
1077.110 21.142 61.884
1138.810 20.414 -61.435
1204.050 19.594 167.536
1273.030 18.622 28.880
1345.960 17.503 -117.278
1423.070 16.288 88.998
1504.590 15.037 -72.926
1590.790 13.669 116.280
1681.920 12.170 -62.488
1778.280 10.839 110.723
1880.150 9.860 -86.079
1987.870 9.280 65.025
2101.750 8.977 -158.765
2222.150 8.524 -38.612
2349.460 7.719 66.688
2484.060 6.608 157.239
2626.360 5.134 -126.797
2776.820 3.378 -65.274
2935.900 1.505 -17.581
3104.100 -0.003 13.622
3281.930 -1.531 25.435
3469.940 -3.027 18.463
3668.730 -4.366 -8.361
3878.910 -5.288 -58.422
4101.130 -6.248 -135.151
4336.070 -7.723 123.021
4584.480 -9.329 -1.939
4847.120 -10.346 -153.236
5124.810 -11.091 21.883
5418.400 -12.454 163.996
5728.810 -14.020 -83.788
6057.010 -15.228 -5.044
6404.000 -16.521 33.855
6770.880 -17.954 34.635
7158.770 -19.482 -5.036
7568.890 -21.067 -88.064
8002.500 -22.547 143.098
8460.950 -24.100 -34.241
8945.670 -25.732 96.776
9458.160 -27.346 174.728
10000.000 -28.967 -166.538
