# Freq(Hz) SPL(dB) Phase (degrees)
10.000 53.231 -71.217
10.570 54.119 -75.145
11.180 55.010 -79.331
11.820 55.888 -83.705
12.500 56.762 -88.333
13.210 57.618 -93.146
13.970 58.476 -98.278
14.770 59.322 -103.662
15.620 60.164 -109.366
16.510 60.988 -115.325
17.460 61.810 -121.678
18.460 62.618 -128.367
19.510 63.409 -135.401
20.630 64.194 -142.930
21.810 64.962 -150.906
23.060 65.711 -159.422
24.380 66.436 -168.506
25.780 67.131 -178.260
27.260 67.781 171.288
28.820 68.370 160.118
30.470 68.881 148.163
32.220 69.289 135.395
34.060 69.565 121.991
36.010 69.688 107.978
38.080 69.641 93.528
40.260 69.420 78.984
42.560 69.033 64.541
45.000 68.500 50.295
47.580 67.848 36.405
50.310 67.103 22.898
53.190 66.291 9.801
56.230 65.431 -2.947
59.460 64.534 -15.494
62.860 63.617 -27.798
66.460 62.685 -40.007
70.270 61.741 -52.186
74.300 60.791 -64.395
78.550 59.841 -76.660
83.050 58.887 -89.089
87.810 57.933 -101.725
92.840 56.981 -114.609
98.160 56.030 -127.801
103.780 55.082 -141.338
109.730 54.136 -155.299
116.020 53.196 -169.716
122.660 52.261 175.380
129.690 51.332 159.892
137.120 50.409 143.786
144.970 49.495 127.011
153.280 48.588 109.468
162.060 47.690 91.123
171.340 46.801 71.898
181.160 45.919 51.696
191.540 45.044 30.458
202.510 44.176 8.108
214.110 43.310 -15.447
226.380 42.444 -40.300
239.350 41.574 -66.514
253.060 40.697 -94.167
267.560 39.807 -123.348
282.890 38.901 -154.116
299.090 37.977 173.483
316.230 37.031 139.351
334.340 36.064 103.480
353.500 35.080 65.766
373.750 34.086 26.181
395.160 33.094 -15.379
417.800 32.120 -59.056
441.730 31.181 -105.030
467.040 30.291 -153.616
493.800 29.452 154.845
522.090 28.644 99.974
552.000 27.830 41.437
583.620 26.952 -20.950
617.050 25.951 -87.170
652.400 24.780 -156.941
689.780 23.446 130.282
729.290 22.053 55.032
771.080 20.788 -22.987
815.250 19.775 -105.066
861.950 18.947 167.312
911.330 18.159 73.711
963.540 17.379 -25.664
1018.740 16.675 -131.287
1077.110 15.981 115.434
1138.810 15.012 -5.841
1204.050 13.563 -133.015
1273.030 11.959 96.187
1345.960 10.818 -39.684
1423.070 10.111 174.239
1504.590 9.176 17.075
1590.790 7.887 -148.060
1681.920 6.697 38.926
1778.280 5.540 -144.676
1880.150 4.268 22.068
1987.870 3.122 178.576
2101.750 2.203 -36.055
2222.150 1.713 93.779
2349.460 0.485 -154.487
2484.060 -1.740 -50.563
2626.360 -2.872 44.785
2776.820 -3.432 118.248
2935.900 -4.637 172.334
3104.100 -6.390 -148.709
3281.930 -7.948 -127.450
3469.940 -9.091 -121.788
3668.730 -10.627 -143.605
3878.910 -12.438 -179.985
4101.130 -13.701 114.853
4336.070 -15.773 29.809
4584.480 -17.563 -81.841
4847.120 -19.085 139.194
5124.810 -21.434 -28.407
5418.400 -23.613 133.442
5728.810 -25.567 -95.628
6057.010 -28.550 1.703
6404.000 -31.168 62.437
6770.880 -34.575 87.244
7158.770 -38.295 67.311
7568.890 -42.769 13.352
8002.500 -49.337 -91.847
8460.950 -63.810 113.833
8945.670 -58.963 110.210
9458.160 -52.805 -149.834
10000.000 -51.485 -97.102
