# Freq(Hz) SPL(dB) Phase (degrees)
10.000 52.662 -72.484
10.570 53.549 -76.484
11.180 54.441 -80.747
11.820 55.318 -85.202
12.500 56.192 -89.917
13.210 57.048 -94.819
13.970 57.906 -100.048
14.770 58.752 -105.533
15.620 59.593 -111.344
16.510 60.417 -117.416
17.460 61.239 -123.890
18.460 62.047 -130.705
19.510 62.838 -137.872
20.630 63.623 -145.543
21.810 64.390 -153.669
23.060 65.140 -162.343
24.380 65.864 -171.595
25.780 66.558 178.474
27.260 67.208 167.834
28.820 67.797 156.466
30.470 68.307 144.302
32.220 68.714 131.313
34.060 68.990 117.676
36.010 69.112 103.416
38.080 69.064 88.703
40.260 68.841 73.883
42.560 68.454 59.149
45.000 67.920 44.595
47.580 67.266 30.377
50.310 66.518 16.526
53.190 65.704 3.065
56.230 64.842 -10.066
59.460 63.942 -23.020
62.860 63.022 -35.752
66.460 62.085 -48.412
70.270 61.138 -61.067
74.300 60.183 -73.777
78.550 59.226 -86.569
83.050 58.266 -99.552
87.810 57.304 -112.770
92.840 56.342 -126.261
98.160 55.381 -140.090
103.780 54.422 -154.289
109.730 53.464 -168.940
116.020 52.509 175.930
122.660 51.560 160.291
129.690 50.614 144.045
137.120 49.676 127.166
144.970 48.746 109.603
153.280 47.824 91.260
162.060 46.914 72.108
171.340 46.017 52.069
181.160 45.135 31.043
191.540 44.268 8.970
202.510 43.420 -14.234
214.110 42.590 -38.679
226.380 41.777 -64.474
239.350 40.981 -91.709
253.060 40.200 -120.494
267.560 39.430 -150.957
282.890 38.666 176.805
299.090 37.904 142.703
316.230 37.137 106.599
334.340 36.360 68.453
353.500 35.569 28.139
373.750 34.761 -14.368
395.160 33.938 -59.141
417.800 33.107 -106.245
441.730 32.284 -155.730
467.040 31.491 152.246
493.800 30.762 97.478
522.090 30.122 39.604
552.000 29.582 -21.879
583.620 29.123 -87.490
617.050 28.697 -157.653
652.400 28.250 127.369
689.780 27.734 47.482
729.290 27.116 -37.271
771.080 26.385 -126.889
815.250 25.550 138.726
861.950 24.646 39.494
911.330 23.720 -64.808
963.540 22.828 -174.637
1018.740 21.997 69.240
1077.110 21.185 -54.108
1138.810 20.269 174.848
1204.050 19.185 36.586
1273.030 17.967 -108.736
1345.960 16.722 98.728
1423.070 15.543 -61.813
1504.590 14.444 128.339
1590.790 13.270 -51.657
1681.920 11.957 118.880
1778.280 10.697 -80.019
1880.150 9.650 70.127
1987.870 8.761 -152.755
2101.750 7.847 -29.355
2222.150 6.873 80.011
2349.460 5.851 174.822
2484.060 4.797 -106.050
2626.360 3.570 -43.871
2776.820 2.014 1.866
2935.900 0.350 31.340
3104.100 -1.392 42.347
3281.930 -3.340 35.576
3469.940 -5.213 10.314
3668.730 -6.664 -33.762
3878.910 -7.299 -103.697
4101.130 -7.809 157.796
4336.070 -8.461 29.379
4584.480 -9.665 -128.424
4847.120 -11.180 44.897
5124.810 -13.060 -172.269
5418.400 -15.156 -60.235
5728.810 -17.281 19.176
6057.010 -19.297 62.436
6404.000 -21.297 67.302
6770.880 -23.245 30.802
7158.770 -25.113 -47.927
7568.890 -27.073 -173.914
8002.500 -29.252 9.971
8460.950 -31.699 143.420
8945.670 -34.478 -136.147
9458.160 -37.308 -115.230
10000.000 -40.703 -154.880
