# Freq(Hz) SPL(dB) Phase (degrees)
10.000 53.337 -70.993
10.570 54.224 -74.908
11.180 55.116 -79.080
11.820 55.993 -83.440
12.500 56.868 -88.052
13.210 57.723 -92.849
13.970 58.582 -97.964
14.770 59.428 -103.330
15.620 60.269 -109.015
16.510 61.093 -114.954
17.460 61.916 -121.286
18.460 62.724 -127.952
19.510 63.515 -134.962
20.630 64.300 -142.466
21.810 65.068 -150.415
23.060 65.818 -158.903
24.380 66.543 -167.958
25.780 67.237 -177.679
27.260 67.888 171.901
28.820 68.478 160.766
30.470 68.988 148.849
32.220 69.397 136.120
34.060 69.673 122.758
36.010 69.797 108.789
38.080 69.751 94.385
40.260 69.529 79.890
42.560 69.144 65.499
45.000 68.611 51.309
47.580 67.960 37.477
50.310 67.215 24.032
53.190 66.404 11.000
56.230 65.546 -1.680
59.460 64.650 -14.154
62.860 63.735 -26.381
66.460 62.804 -38.510
70.270 61.862 -50.603
74.300 60.914 -62.722
78.550 59.966 -74.893
83.050 59.015 -87.222
87.810 58.065 -99.754
92.840 57.115 -112.527
98.160 56.168 -125.605
103.780 55.225 -139.022
109.730 54.285 -152.858
116.020 53.350 -167.145
122.660 52.422 178.085
129.690 51.499 162.734
137.120 50.585 146.770
144.970 49.679 130.138
153.280 48.781 112.741
162.060 47.892 94.544
171.340 47.013 75.468
181.160 46.141 55.414
191.540 45.276 34.326
202.510 44.417 12.126
214.110 43.560 -11.279
226.380 42.701 -35.977
239.350 41.838 -62.032
253.060 40.965 -89.519
267.560 40.078 -118.523
282.890 39.172 -149.097
299.090 38.246 178.716
316.230 37.297 144.825
334.340 36.326 109.226
353.500 35.337 71.819
373.750 34.340 32.576
395.160 33.347 -8.613
417.800 32.376 -51.900
441.730 31.442 -97.481
467.040 30.557 -145.684
493.800 29.717 163.155
522.090 28.901 108.683
552.000 28.066 50.618
583.620 27.160 -11.164
617.050 26.134 -76.592
652.400 24.958 -145.371
689.780 23.663 142.955
729.290 22.362 68.666
771.080 21.206 -8.829
815.250 20.248 -90.733
861.950 19.395 -177.983
911.330 18.576 89.380
963.540 17.854 -8.717
1018.740 17.295 -113.571
1077.110 16.699 133.096
1138.810 15.679 11.636
1204.050 14.098 -114.966
1273.030 12.394 115.537
1345.960 11.187 -19.049
1423.070 10.350 -163.248
1504.590 9.444 42.704
1590.790 8.470 -120.279
1681.920 7.470 67.031
1778.280 6.380 -115.457
1880.150 5.304 51.579
1987.870 3.985 -152.601
2101.750 2.731 -4.825
2222.150 2.228 128.287
2349.460 1.124 -116.737
2484.060 -0.773 -11.193
2626.360 -1.926 85.197
2776.820 -2.343 160.048
2935.900 -3.792 -144.786
3104.100 -5.527 -101.386
3281.930 -7.091 -76.607
3469.940 -7.984 -68.818
3668.730 -9.286 -89.781
3878.910 -11.597 -123.103
4101.130 -12.664 177.033
4336.070 -14.488 94.489
4584.480 -16.261 -15.678
4847.120 -17.944 -149.657
5124.810 -20.069 47.401
5418.400 -22.025 -148.397
5728.810 -24.165 -12.135
6057.010 -26.935 89.532
6404.000 -29.497 154.374
6770.880 -32.909 -176.305
7158.770 -36.086 169.598
7568.890 -40.345 119.525
8002.500 -46.450 18.117
8460.950 -56.235 -135.639
8945.670 -61.653 -108.277
9458.160 -52.776 -8.925
10000.000 -50.519 49.123
