# Freq(Hz) SPL(dB) Phase (degrees)
10.000 53.766 -70.104
10.570 54.654 -73.968
11.180 55.546 -78.087
11.820 56.424 -82.389
12.500 57.298 -86.942
13.210 58.154 -91.675
13.970 59.013 -96.723
14.770 59.859 -102.018
15.620 60.701 -107.626
16.510 61.526 -113.486
17.460 62.349 -119.734
18.460 63.157 -126.311
19.510 63.949 -133.228
20.630 64.736 -140.632
21.810 65.504 -148.477
23.060 66.255 -156.854
24.380 66.981 -165.791
25.780 67.677 -175.388
27.260 68.329 174.324
28.820 68.920 163.328
30.470 69.432 151.557
32.220 69.842 138.984
34.060 70.121 125.785
36.010 70.247 111.990
38.080 70.203 97.770
40.260 69.985 83.468
42.560 69.603 69.281
45.000 69.075 55.308
47.580 68.427 41.704
50.310 67.688 28.501
53.190 66.882 15.723
56.230 66.030 3.312
59.460 65.141 -8.877
62.860 64.234 -20.806
66.460 63.312 -32.619
70.270 62.381 -44.380
74.300 61.445 -56.149
78.550 60.510 -67.954
83.050 59.574 -79.899
87.810 58.640 -92.028
92.840 57.710 -104.380
98.160 56.784 -117.020
103.780 55.865 -129.982
109.730 54.951 -143.347
116.020 54.046 -157.149
122.660 53.150 -171.421
129.690 52.264 173.737
137.120 51.388 158.289
144.970 50.525 142.178
153.280 49.671 125.305
162.060 48.830 107.630
171.340 47.999 89.072
181.160 47.177 69.532
191.540 46.362 48.952
202.510 45.550 27.256
214.110 44.738 4.354
226.380 43.921 -19.838
239.350 43.094 -45.374
253.060 42.250 -72.319
267.560 41.385 -100.742
282.890 40.493 -130.678
299.090 39.573 -162.148
316.230 38.622 164.784
334.340 37.647 130.135
353.500 36.654 93.827
373.750 35.660 55.833
395.160 34.684 16.026
417.800 33.746 -25.786
441.730 32.860 -69.851
467.040 32.029 -116.518
493.800 31.237 -166.086
522.090 30.458 141.223
552.000 29.664 85.313
583.620 28.848 26.193
617.050 28.032 -36.196
652.400 27.248 -102.182
689.780 26.497 -172.329
729.290 25.716 112.895
771.080 24.813 33.351
815.250 23.726 -50.507
861.950 22.476 -138.076
911.330 21.182 131.015
963.540 20.011 36.505
1018.740 19.123 -62.571
1077.110 18.620 -168.057
1138.810 18.349 77.596
1204.050 17.923 -46.746
1273.030 16.970 -179.214
1345.960 15.534 42.547
1423.070 13.914 -100.191
1504.590 12.500 112.317
1590.790 11.710 -42.702
1681.920 11.329 149.939
1778.280 10.742 -29.796
1880.150 9.933 139.838
1987.870 8.941 -61.481
2101.750 7.788 86.328
2222.150 6.426 -136.639
2349.460 5.291 -9.067
2484.060 4.816 103.265
2626.360 4.192 -163.451
2776.820 2.744 -85.702
2935.900 1.160 -18.366
3104.100 0.291 32.171
3281.930 -0.790 61.390
3469.940 -2.029 73.767
3668.730 -3.348 64.020
3878.910 -5.067 37.893
4101.130 -5.766 -12.988
4336.070 -7.574 -89.347
4584.480 -8.840 173.882
4847.120 -10.398 47.400
5124.810 -11.868 -105.033
5418.400 -13.587 72.461
5728.810 -15.273 -140.407
6057.010 -16.982 -25.580
6404.000 -19.069 54.839
6770.880 -20.910 98.140
7158.770 -22.991 103.929
7568.890 -25.047 68.507
8002.500 -27.355 -9.512
8460.950 -29.708 -133.917
8945.670 -32.315 53.967
9458.160 -34.993 -169.395
10000.000 -38.112 -85.275
