# Freq(Hz) SPL(dB) Phase (degrees)
10.000 50.931 -76.897
10.570 51.819 -81.148
11.180 52.711 -85.681
11.820 53.588 -90.419
12.500 54.463 -95.434
13.210 55.319 -100.650
13.970 56.178 -106.214
14.770 57.024 -112.053
15.620 57.866 -118.240
16.510 58.690 -124.706
17.460 59.513 -131.600
18.460 60.321 -138.858
19.510 61.113 -146.490
20.630 61.899 -154.657
21.810 62.668 -163.305
23.060 63.418 -172.534
24.380 64.144 177.629
25.780 64.840 167.077
27.260 65.491 155.779
28.820 66.082 143.718
30.470 66.594 130.819
32.220 67.003 117.050
34.060 67.281 102.592
36.010 67.407 87.462
38.080 67.362 71.823
40.260 67.142 56.027
42.560 66.758 40.261
45.000 66.228 24.610
47.580 65.579 9.231
50.310 64.836 -5.853
53.190 64.027 -20.617
56.230 63.171 -35.128
59.460 62.276 -49.552
62.860 61.363 -63.836
66.460 60.433 -78.146
70.270 59.492 -92.554
74.300 58.544 -107.126
78.550 57.595 -121.890
83.050 56.642 -136.972
87.810 55.688 -152.420
92.840 54.733 -168.282
98.160 53.777 175.369
103.780 52.823 158.491
109.730 51.867 140.988
116.020 50.912 122.824
122.660 49.960 103.965
129.690 49.006 84.292
137.120 48.054 63.772
144.970 47.104 42.346
153.280 46.153 19.902
162.060 45.203 -3.591
171.340 44.255 -28.219
181.160 43.306 -54.091
191.540 42.358 -81.264
202.510 41.411 -109.820
214.110 40.462 -139.868
226.380 39.512 -171.513
239.350 38.560 155.163
253.060 37.605 120.057
267.560 36.646 83.041
282.890 35.681 44.015
299.090 34.711 2.879
316.230 33.735 -40.540
334.340 32.752 -86.317
353.500 31.763 -134.654
373.750 30.769 174.340
395.160 29.771 120.472
417.800 28.767 63.538
441.730 27.755 3.346
467.040 26.729 -60.380
493.800 25.676 -127.859
522.090 24.579 160.692
552.000 23.416 85.083
583.620 22.165 5.189
617.050 20.813 -79.091
652.400 19.352 -167.866
689.780 17.777 98.756
729.290 16.086 0.703
771.080 14.277 -102.166
815.250 12.354 150.229
861.950 10.344 37.985
911.330 8.332 -78.719
963.540 6.489 159.962
1018.740 5.021 32.886
1077.110 3.997 -102.241
1138.810 3.246 112.758
1204.050 2.549 -42.667
1273.030 1.852 151.512
1345.960 1.134 -25.359
1423.070 0.283 145.856
1504.590 -0.866 -55.295
1590.790 -2.514 91.627
1681.920 -4.723 -131.960
1778.280 -7.412 -5.047
1880.150 -10.450 113.918
1987.870 -13.280 -131.549
2101.750 -14.069 -25.590
2222.150 -13.199 55.093
2349.460 -12.475 109.909
2484.060 -12.089 142.662
2626.360 -12.108 152.609
2776.820 -12.807 139.945
2935.900 -14.196 105.305
3104.100 -16.358 49.432
3281.930 -19.370 -27.709
3469.940 -23.021 -122.870
3668.730 -26.423 125.978
3878.910 -27.493 -13.782
4101.130 -28.783 160.546
4336.070 -31.899 -63.558
4584.480 -38.303 30.896
4847.120 -55.386 29.278
5124.810 -44.196 -31.740
5418.400 -42.519 -58.386
5728.810 -44.953 -113.764
6057.010 -47.951 168.553
6404.000 -62.362 100.625
6770.880 -56.099 -94.764
7158.770 -66.598 -21.730
7568.890 -61.679 -8.318
8002.500 -67.450 -36.533
8460.950 -75.598 -22.255
8945.670 -76.164 -130.706
9458.160 -75.445 147.061
10000.000 -67.758 -127.460
