# Freq(Hz) SPL(dB) Phase (degrees)
10.000 53.448 -70.760
10.570 54.335 -74.662
11.180 55.227 -78.820
11.820 56.105 -83.165
12.500 56.979 -87.762
13.210 57.835 -92.542
13.970 58.694 -97.640
14.770 59.540 -102.987
15.620 60.382 -108.652
16.510 61.206 -114.570
17.460 62.029 -120.880
18.460 62.837 -127.522
19.510 63.629 -134.508
20.630 64.415 -141.986
21.810 65.183 -149.908
23.060 65.934 -158.366
24.380 66.660 -167.390
25.780 67.355 -177.079
27.260 68.007 172.536
28.820 68.598 161.438
30.470 69.109 149.559
32.220 69.519 136.872
34.060 69.797 123.553
36.010 69.923 109.630
38.080 69.878 95.275
40.260 69.659 80.832
42.560 69.276 66.496
45.000 68.746 52.363
47.580 68.098 38.593
50.310 67.357 25.213
53.190 66.549 12.250
56.230 65.695 -0.356
59.460 64.804 -12.753
62.860 63.895 -24.898
66.460 62.970 -36.939
70.270 62.036 -48.940
74.300 61.096 -60.960
78.550 60.157 -73.027
83.050 59.217 -85.247
87.810 58.278 -97.663
92.840 57.343 -110.314
98.160 56.411 -123.263
103.780 55.486 -136.545
109.730 54.566 -150.241
116.020 53.654 -164.382
122.660 52.752 -179.002
129.690 51.859 165.801
137.120 50.979 149.993
144.970 50.111 133.516
153.280 49.257 116.271
162.060 48.417 98.217
171.340 47.593 79.273
181.160 46.782 59.335
191.540 45.984 38.339
202.510 45.199 16.203
214.110 44.422 -7.175
226.380 43.649 -31.889
239.350 42.877 -58.010
253.060 42.099 -85.617
267.560 41.311 -114.797
282.890 40.506 -145.604
299.090 39.681 -178.077
316.230 38.832 147.704
334.340 37.962 111.748
353.500 37.074 73.973
373.750 36.182 34.367
395.160 35.304 -7.170
417.800 34.463 -50.803
441.730 33.683 -96.764
467.040 32.978 -145.449
493.800 32.342 162.725
522.090 31.741 107.354
552.000 31.123 48.172
583.620 30.428 -14.855
617.050 29.622 -81.564
652.400 28.708 -151.726
689.780 27.729 134.804
729.290 26.756 57.939
771.080 25.857 -22.839
815.250 25.058 -108.199
861.950 24.325 161.142
911.330 23.601 64.795
963.540 22.858 -37.352
1018.740 22.115 -145.595
1077.110 21.356 99.299
1138.810 20.454 -23.170
1204.050 19.275 -152.478
1273.030 17.874 72.333
1345.960 16.420 -68.564
1423.070 15.063 144.294
1504.590 13.962 -9.940
1590.790 13.250 -173.216
1681.920 12.821 12.094
1778.280 12.391 -175.112
1880.150 11.777 -14.360
1987.870 11.004 134.256
2101.750 9.939 -89.667
2222.150 8.553 34.940
2349.460 7.059 148.433
2484.060 5.804 -110.383
2626.360 4.783 -24.986
2776.820 3.674 43.401
2935.900 2.404 95.534
3104.100 1.163 130.333
3281.930 -0.184 146.475
3469.940 -1.524 142.091
3668.730 -3.589 117.672
3878.910 -5.531 78.781
4101.130 -6.192 16.323
4336.070 -6.958 -77.570
4584.480 -8.466 162.819
4847.120 -9.941 19.418
5124.810 -11.102 -153.449
5418.400 -12.439 3.143
5728.810 -13.563 127.322
6057.010 -14.708 -143.571
6404.000 -15.853 -89.883
6770.880 -17.051 -76.791
7158.770 -18.546 -102.207
7568.890 -19.927 -170.452
8002.500 -21.372 76.252
8460.950 -22.805 -84.345
8945.670 -24.262 64.822
9458.160 -25.653 160.277
10000.000 -27.282 -160.209
