# Freq(Hz) SPL(dB) Phase (degrees)
10.000 52.279 -73.383
10.570 53.167 -77.434
11.180 54.058 -81.752
11.820 54.935 -86.265
12.500 55.809 -91.040
13.210 56.665 -96.007
13.970 57.523 -101.304
14.770 58.369 -106.861
15.620 59.210 -112.748
16.510 60.033 -118.901
17.460 60.855 -125.460
18.460 61.663 -132.365
19.510 62.454 -139.627
20.630 63.238 -147.399
21.810 64.005 -155.631
23.060 64.754 -164.418
24.380 65.478 -173.789
25.780 66.172 176.154
27.260 66.821 165.380
28.820 67.410 153.871
30.470 67.919 141.558
32.220 68.325 128.410
34.060 68.600 114.605
36.010 68.722 100.169
38.080 68.673 85.268
40.260 68.449 70.249
42.560 68.060 55.306
45.000 67.524 40.529
47.580 66.868 26.076
50.310 66.119 11.975
53.190 65.302 -1.750
56.230 64.437 -15.161
59.460 63.534 -28.412
62.860 62.610 -41.457
66.460 61.670 -54.450
70.270 60.717 -67.457
74.300 59.756 -80.541
78.550 58.793 -93.727
83.050 57.825 -107.129
87.810 56.855 -120.789
92.840 55.883 -134.748
98.160 54.910 -149.071
103.780 53.937 -163.791
109.730 52.962 -178.992
116.020 51.988 165.300
122.660 51.017 149.056
129.690 50.045 132.177
137.120 49.077 114.640
144.970 48.113 96.395
153.280 47.152 77.350
162.060 46.199 57.480
171.340 45.254 36.713
181.160 44.317 14.954
191.540 43.393 -7.847
202.510 42.484 -31.768
214.110 41.590 -56.913
226.380 40.715 -83.388
239.350 39.858 -111.281
253.060 39.022 -140.707
267.560 38.205 -171.803
282.890 37.406 155.314
299.090 36.622 120.532
316.230 35.847 83.680
334.340 35.078 44.682
353.500 34.306 3.370
373.750 33.527 -40.323
395.160 32.736 -86.509
417.800 31.927 -135.279
441.730 31.104 173.315
467.040 30.273 119.166
493.800 29.450 62.191
522.090 28.660 2.229
552.000 27.928 -60.999
583.620 27.271 -127.870
617.050 26.691 161.175
652.400 26.172 85.704
689.780 25.689 5.349
729.290 25.216 -80.175
771.080 24.719 -171.207
815.250 24.165 92.113
861.950 23.525 -10.351
911.330 22.790 -118.652
963.540 21.976 127.148
1018.740 21.117 6.832
1077.110 20.246 -120.039
1138.810 19.395 105.950
1204.050 18.535 -35.550
1273.030 17.679 174.464
1345.960 16.757 15.565
1423.070 15.717 -152.441
1504.590 14.561 30.397
1590.790 13.329 -156.183
1681.920 12.108 7.209
1778.280 10.901 159.225
1880.150 9.579 -60.828
1987.870 8.090 67.179
2101.750 6.531 -176.725
2222.150 5.010 -73.519
2349.460 3.542 15.654
2484.060 2.177 89.837
2626.360 0.883 147.528
2776.820 -0.408 -171.605
2935.900 -1.499 -148.509
3104.100 -2.399 -145.867
3281.930 -3.267 -164.266
3469.940 -3.991 154.693
3668.730 -4.706 88.270
3878.910 -5.667 -3.950
4101.130 -6.839 -122.925
4336.070 -8.344 90.998
4584.480 -10.067 -83.837
4847.120 -12.095 70.763
5124.810 -14.526 -165.641
5418.400 -17.284 -73.408
5728.810 -20.073 -15.168
6057.010 -22.903 8.055
6404.000 -25.710 -6.444
6770.880 -28.080 -63.043
7158.770 -29.883 -165.628
7568.890 -32.307 41.093
8002.500 -35.128 -167.604
8460.950 -39.042 -65.402
8945.670 -43.877 -16.637
9458.160 -51.604 -23.045
10000.000 -63.361 -76.956
