# Freq(Hz) SPL(dB) Phase (degrees)
10.000 52.911 -71.920
10.570 53.799 -75.888
11.180 54.690 -80.117
11.820 55.568 -84.536
12.500 56.442 -89.212
13.210 57.298 -94.075
13.970 58.156 -99.260
14.770 59.002 -104.700
15.620 59.843 -110.463
16.510 60.667 -116.485
17.460 61.489 -122.905
18.460 62.297 -129.664
19.510 63.089 -136.772
20.630 63.874 -144.379
21.810 64.642 -152.438
23.060 65.391 -161.042
24.380 66.116 -170.219
25.780 66.811 179.930
27.260 67.461 169.373
28.820 68.050 158.094
30.470 68.561 146.023
32.220 68.969 133.133
34.060 69.245 119.600
36.010 69.369 105.451
38.080 69.321 90.856
40.260 69.100 76.159
42.560 68.713 61.556
45.000 68.180 47.141
47.580 67.528 33.070
50.310 66.783 19.375
53.190 65.970 6.078
56.230 65.111 -6.880
59.460 64.213 -19.650
62.860 63.296 -32.187
66.460 62.363 -44.641
70.270 61.419 -57.079
74.300 60.469 -69.559
78.550 59.518 -82.109
83.050 58.564 -94.836
87.810 57.609 -107.784
92.840 56.655 -120.992
98.160 55.704 -134.522
103.780 54.755 -148.409
109.730 53.809 -162.732
116.020 52.869 -177.522
122.660 51.935 167.192
129.690 51.008 151.313
137.120 50.089 134.810
144.970 49.181 117.632
153.280 48.284 99.680
162.060 47.401 80.921
171.340 46.534 61.274
181.160 45.681 40.638
191.540 44.845 18.949
202.510 44.027 -3.879
214.110 43.226 -27.956
226.380 42.439 -53.388
239.350 41.665 -80.262
253.060 40.899 -108.679
267.560 40.138 -138.755
282.890 39.376 -170.573
299.090 38.607 155.796
316.230 37.826 120.232
334.340 37.029 82.718
353.500 36.214 43.148
373.750 35.384 1.511
395.160 34.545 -42.257
417.800 33.714 -88.234
441.730 32.912 -136.516
467.040 32.169 172.656
493.800 31.513 118.956
522.090 30.954 61.915
552.000 30.475 1.004
583.620 30.029 -64.208
617.050 29.554 -133.970
652.400 28.994 151.655
689.780 28.311 72.751
729.290 27.494 -10.493
771.080 26.564 -97.991
815.250 25.571 170.317
861.950 24.583 74.125
911.330 23.648 -27.157
963.540 22.773 -134.257
1018.740 21.918 112.149
1077.110 21.003 -8.361
1138.810 19.958 -135.623
1204.050 18.840 90.762
1273.030 17.773 -49.637
1345.960 16.815 162.007
1423.070 15.898 4.739
1504.590 14.964 -161.836
1590.790 13.995 21.984
1681.920 13.028 -164.226
1778.280 12.058 -1.581
1880.150 10.983 149.377
1987.870 9.766 -71.631
2101.750 8.389 55.280
2222.150 6.902 169.841
2349.460 5.340 -88.700
2484.060 3.707 -0.514
2626.360 2.258 74.305
2776.820 1.192 132.610
2935.900 0.348 172.090
3104.100 -0.485 -168.588
3281.930 -1.408 -169.821
3469.940 -2.473 166.243
3668.730 -4.085 121.122
3878.910 -5.793 54.871
4101.130 -7.716 -32.726
4336.070 -9.008 -144.199
4584.480 -10.057 74.946
4847.120 -11.138 -96.116
5124.810 -12.432 61.656
5418.400 -13.721 -173.406
5728.810 -15.221 -82.625
6057.010 -16.988 -28.051
6404.000 -19.084 -10.073
6770.880 -21.081 -28.628
7158.770 -22.574 -89.647
7568.890 -24.103 161.325
8002.500 -26.007 4.424
8460.950 -28.035 158.801
8945.670 -30.215 -100.808
9458.160 -32.554 -54.233
10000.000 -34.708 -69.111
