# Freq(Hz) SPL(dB) Phase (degrees)
10.000 50.842 -77.147
10.570 51.730 -81.413
11.180 52.622 -85.961
11.820 53.500 -90.715
12.500 54.374 -95.747
13.210 55.230 -100.981
13.970 56.089 -106.564
14.770 56.936 -112.423
15.620 57.777 -118.631
16.510 58.602 -125.119
17.460 59.424 -132.037
18.460 60.233 -139.320
19.510 61.025 -146.978
20.630 61.811 -155.173
21.810 62.579 -163.851
23.060 63.330 -173.111
24.380 64.056 177.019
25.780 64.752 166.431
27.260 65.403 155.097
28.820 65.994 142.996
30.470 66.506 130.056
32.220 66.916 116.243
34.060 67.194 101.739
36.010 67.320 86.560
38.080 67.275 70.870
40.260 67.055 55.019
42.560 66.672 39.195
45.000 66.142 23.483
47.580 65.492 8.040
50.310 64.750 -7.112
53.190 63.941 -21.949
56.230 63.085 -36.535
59.460 62.191 -51.040
62.860 61.278 -65.409
66.460 60.349 -79.809
70.270 59.409 -94.312
74.300 58.462 -108.984
78.550 57.513 -123.854
83.050 56.561 -139.047
87.810 55.607 -154.614
92.840 54.653 -170.600
98.160 53.699 172.918
103.780 52.745 155.902
109.730 51.791 138.253
116.020 50.837 119.935
122.660 49.886 100.913
129.690 48.934 81.068
137.120 47.984 60.369
144.970 47.036 38.755
153.280 46.087 16.113
162.060 45.140 -7.588
171.340 44.195 -32.433
181.160 43.250 -58.531
191.540 42.306 -85.940
202.510 41.364 -114.741
214.110 40.421 -145.043
226.380 39.479 -176.952
239.350 38.535 149.451
253.060 37.591 114.063
267.560 36.646 76.755
282.890 35.698 37.425
299.090 34.748 -4.026
316.230 33.796 -47.775
334.340 32.842 -93.897
353.500 31.888 -142.597
373.750 30.934 166.019
395.160 29.983 111.761
417.800 29.035 54.429
441.730 28.090 -6.158
467.040 27.145 -70.267
493.800 26.197 -138.111
522.090 25.235 150.081
552.000 24.251 74.076
583.620 23.235 -6.326
617.050 22.179 -91.337
652.400 21.081 178.810
689.780 19.938 83.873
729.290 18.750 -16.371
771.080 17.520 -122.279
815.250 16.250 125.890
861.950 14.945 7.708
911.330 13.601 -117.311
963.540 12.204 110.306
1018.740 10.715 -29.955
1077.110 9.081 -178.491
1138.810 7.333 24.714
1204.050 5.313 -140.646
1273.030 3.301 44.761
1345.960 1.227 -140.507
1423.070 -1.008 22.240
1504.590 -3.514 172.052
1590.790 -6.334 -51.869
1681.920 -9.212 68.915
1778.280 -11.744 171.904
1880.150 -13.389 -102.656
1987.870 -13.890 -30.438
2101.750 -13.640 30.940
2222.150 -13.419 80.451
2349.460 -13.556 116.371
2484.060 -14.044 138.180
2626.360 -14.646 143.343
2776.820 -15.496 129.971
2935.900 -16.455 97.522
3104.100 -17.315 44.125
3281.930 -18.101 -34.463
3469.940 -19.032 -139.444
3668.730 -20.290 87.677
3878.910 -22.184 -73.795
4101.130 -24.242 92.894
4336.070 -27.067 -132.218
4584.480 -30.876 -31.638
4847.120 -35.363 32.711
5124.810 -41.605 52.143
5418.400 -48.716 -8.663
5728.810 -48.612 -93.817
6057.010 -46.105 150.134
6404.000 -46.941 12.782
6770.880 -49.195 -169.044
7158.770 -52.404 -42.590
7568.890 -57.887 30.921
8002.500 -66.490 40.627
8460.950 -85.302 67.033
8945.670 -67.654 -9.042
9458.160 -71.073 146.299
10000.000 -67.881 151.966
