# Freq(Hz) SPL(dB) Phase (degrees)
10.000 52.875 -71.999
10.570 53.763 -75.971
11.180 54.654 -80.205
11.820 55.532 -84.629
12.500 56.406 -89.310
13.210 57.261 -94.178
13.970 58.120 -99.370
14.770 58.966 -104.816
15.620 59.807 -110.586
16.510 60.630 -116.615
17.460 61.452 -123.043
18.460 62.260 -129.810
19.510 63.051 -136.926
20.630 63.836 -144.543
21.810 64.603 -152.611
23.060 65.352 -161.225
24.380 66.077 -170.413
25.780 66.770 179.724
27.260 67.420 169.156
28.820 68.009 157.863
30.470 68.519 145.779
32.220 68.926 132.873
34.060 69.201 119.325
36.010 69.324 105.159
38.080 69.275 90.545
40.260 69.052 75.830
42.560 68.664 61.206
45.000 68.130 46.768
47.580 67.475 32.674
50.310 66.727 18.952
53.190 65.913 5.628
56.230 65.050 -7.360
59.460 64.149 -20.162
62.860 63.229 -32.734
66.460 62.292 -45.227
70.270 61.343 -57.707
74.300 60.388 -70.233
78.550 59.430 -82.832
83.050 58.469 -95.614
87.810 57.506 -108.622
92.840 56.543 -121.896
98.160 55.580 -135.499
103.780 54.619 -149.466
109.730 53.658 -163.877
116.020 52.700 -178.763
122.660 51.746 165.846
129.690 50.795 149.852
137.120 49.848 133.226
144.970 48.907 115.916
153.280 47.971 97.826
162.060 47.042 78.924
171.340 46.120 59.137
181.160 45.204 38.365
191.540 44.295 16.555
202.510 43.392 -6.371
214.110 42.493 -30.507
226.380 41.597 -55.948
239.350 40.702 -82.764
253.060 39.804 -111.041
267.560 38.900 -140.879
282.890 37.986 -172.352
299.090 37.061 154.477
316.230 36.121 119.489
334.340 35.164 82.658
353.500 34.190 43.863
373.750 33.203 3.074
395.160 32.208 -39.802
417.800 31.217 -84.865
441.730 30.247 -132.229
467.040 29.317 177.867
493.800 28.447 125.126
522.090 27.641 69.139
552.000 26.879 9.441
583.620 26.113 -54.367
617.050 25.274 -122.518
652.400 24.282 165.022
689.780 23.079 88.652
729.290 21.676 9.112
771.080 20.198 -73.017
815.250 18.880 -157.908
861.950 17.899 112.760
911.330 17.193 16.789
963.540 16.501 -86.936
1018.740 15.574 161.922
1077.110 14.300 44.571
1138.810 12.788 -77.469
1204.050 11.314 155.856
1273.030 10.096 22.811
1345.960 9.066 -117.883
1423.070 8.311 92.903
1504.590 7.753 -67.687
1590.790 6.825 119.790
1681.920 5.424 -61.039
1778.280 4.128 109.775
1880.150 2.798 -91.606
1987.870 0.967 57.495
2101.750 -0.341 -160.358
2222.150 -0.918 -36.276
2349.460 -2.456 71.314
2484.060 -4.182 171.419
2626.360 -4.916 -103.708
2776.820 -5.618 -40.607
2935.900 -7.182 3.845
3104.100 -8.602 34.365
3281.930 -10.720 46.735
3469.940 -11.945 42.052
3668.730 -13.792 10.488
3878.910 -15.301 -36.915
4101.130 -16.847 -114.260
4336.070 -19.063 147.309
4584.480 -21.262 22.533
4847.120 -22.933 -128.435
5124.810 -24.982 50.955
5418.400 -27.238 -164.378
5728.810 -29.741 -49.864
6057.010 -32.689 31.889
6404.000 -35.754 73.760
6770.880 -39.190 80.299
7158.770 -43.704 44.224
7568.890 -48.220 -32.246
8002.500 -56.110 -142.716
8460.950 -66.840 128.128
8945.670 -58.894 -44.366
9458.160 -55.651 49.890
10000.000 -54.697 74.496
