# Freq(Hz) SPL(dB) Phase (degrees)
10.000 53.118 -71.462
10.570 54.006 -75.403
11.180 54.898 -79.604
11.820 55.775 -83.994
12.500 56.649 -88.639
13.210 57.505 -93.469
13.970 58.363 -98.620
14.770 59.209 -104.023
15.620 60.050 -109.747
16.510 60.874 -115.728
17.460 61.696 -122.105
18.460 62.504 -128.818
19.510 63.295 -135.877
20.630 64.081 -143.434
21.810 64.848 -151.439
23.060 65.597 -159.985
24.380 66.322 -169.102
25.780 67.016 -178.889
27.260 67.666 170.622
28.820 68.256 159.413
30.470 68.766 147.418
32.220 69.173 134.607
34.060 69.449 121.158
36.010 69.572 107.098
38.080 69.525 92.596
40.260 69.302 77.999
42.560 68.916 63.499
45.000 68.382 49.194
47.580 67.729 35.240
50.310 66.983 21.666
53.190 66.170 8.498
56.230 65.309 -4.324
59.460 64.411 -16.951
62.860 63.493 -29.338
66.460 62.558 -41.635
70.270 61.613 -53.908
74.300 60.661 -66.215
78.550 59.709 -78.583
83.050 58.752 -91.122
87.810 57.795 -103.873
92.840 56.839 -116.877
98.160 55.884 -130.196
103.780 54.932 -143.865
109.730 53.981 -157.964
116.020 53.034 -172.524
122.660 52.093 172.423
129.690 51.156 156.781
137.120 50.226 140.518
144.970 49.303 123.581
153.280 48.386 105.874
162.060 47.478 87.362
171.340 46.579 67.970
181.160 45.686 47.598
191.540 44.801 26.190
202.510 43.922 3.671
214.110 43.046 -20.057
226.380 42.171 -45.085
239.350 41.295 -71.478
253.060 40.412 -99.318
267.560 39.519 -128.698
282.890 38.612 -159.680
299.090 37.688 167.682
316.230 36.745 133.286
334.340 35.783 97.117
353.500 34.802 59.067
373.750 33.811 19.109
395.160 32.819 -22.857
417.800 31.841 -66.958
441.730 30.895 -113.357
467.040 29.997 -162.349
493.800 29.154 145.728
522.090 28.354 90.473
552.000 27.562 31.503
583.620 26.722 -31.437
617.050 25.765 -98.400
652.400 24.632 -169.165
689.780 23.302 116.826
729.290 21.855 40.280
771.080 20.482 -38.734
815.250 19.378 -121.314
861.950 18.541 150.645
911.330 17.789 56.099
963.540 16.983 -44.807
1018.740 16.121 -151.795
1077.110 15.232 94.605
1138.810 14.215 -26.193
1204.050 12.895 -153.431
1273.030 11.438 74.534
1345.960 10.331 -62.769
1423.070 9.725 150.020
1504.590 8.951 -9.523
1590.790 7.583 -177.952
1681.920 6.159 7.213
1778.280 4.931 -178.045
1880.150 3.391 -13.456
1987.870 2.023 143.656
2101.750 1.357 -71.559
2222.150 0.914 56.001
2349.460 -0.178 166.122
2484.060 -2.260 -93.695
2626.360 -3.520 -1.969
2776.820 -4.440 68.040
2935.900 -5.890 122.644
3104.100 -7.363 158.377
3281.930 -8.621 178.359
3469.940 -9.883 177.831
3668.730 -11.777 152.357
3878.910 -13.616 114.956
4101.130 -14.897 47.312
4336.070 -16.757 -42.968
4584.480 -18.783 -159.416
4847.120 -20.556 58.339
5124.810 -22.605 -112.072
5418.400 -24.828 43.281
5728.810 -27.098 169.486
6057.010 -29.955 -96.830
6404.000 -32.669 -42.853
6770.880 -36.496 -22.194
7158.770 -40.382 -46.201
7568.890 -45.150 -110.672
8002.500 -52.475 144.974
8460.950 -71.619 18.155
8945.670 -58.311 -48.015
9458.160 -53.663 53.302
10000.000 -52.471 99.004
