# Freq(Hz) SPL(dB) Phase (degrees)
10.000 52.788 -72.197
10.570 53.675 -76.181
11.180 54.567 -80.427
11.820 55.444 -84.863
12.500 56.318 -89.558
13.210 57.174 -94.440
13.970 58.033 -99.647
14.770 58.878 -105.109
15.620 59.720 -110.896
16.510 60.544 -116.942
17.460 61.366 -123.389
18.460 62.173 -130.175
19.510 62.965 -137.312
20.630 63.750 -144.951
21.810 64.517 -153.043
23.060 65.267 -161.681
24.380 65.991 -170.894
25.780 66.686 179.215
27.260 67.336 168.618
28.820 67.925 157.295
30.470 68.435 145.178
32.220 68.843 132.239
34.060 69.119 118.655
36.010 69.242 104.452
38.080 69.194 89.799
40.260 68.972 75.042
42.560 68.585 60.374
45.000 68.051 45.891
47.580 67.398 31.748
50.310 66.651 17.976
53.190 65.838 4.599
56.230 64.977 -8.444
59.460 64.078 -21.304
62.860 63.160 -33.936
66.460 62.225 -46.491
70.270 61.279 -59.035
74.300 60.327 -71.628
78.550 59.373 -84.296
83.050 58.416 -97.148
87.810 57.457 -110.227
92.840 56.500 -123.574
98.160 55.543 -137.249
103.780 54.589 -151.288
109.730 53.637 -165.770
116.020 52.689 179.275
122.660 51.748 163.818
129.690 50.812 147.762
137.120 49.883 131.078
144.970 48.965 113.715
153.280 48.056 95.575
162.060 47.160 76.628
171.340 46.278 56.794
181.160 45.411 35.972
191.540 44.561 14.100
202.510 43.729 -8.907
214.110 42.915 -33.160
226.380 42.117 -58.767
239.350 41.333 -85.816
253.060 40.562 -114.413
267.560 39.798 -144.681
282.890 39.037 -176.709
299.090 38.274 149.423
316.230 37.501 113.585
334.340 36.715 75.751
353.500 35.912 35.805
373.750 35.093 -6.269
395.160 34.262 -50.539
417.800 33.430 -97.071
441.730 32.616 -145.936
467.040 31.849 162.670
493.800 31.158 108.478
522.090 30.565 51.065
552.000 30.067 -10.103
583.620 29.627 -75.514
617.050 29.190 -145.511
652.400 28.698 139.745
689.780 28.106 60.254
729.290 27.392 -23.856
771.080 26.557 -112.529
815.250 25.633 154.337
861.950 24.672 56.579
911.330 23.730 -46.203
963.540 22.845 -154.644
1018.740 22.009 90.445
1077.110 21.145 -31.665
1138.810 20.135 -161.055
1204.050 18.971 62.900
1273.030 17.755 -79.735
1345.960 16.618 130.311
1423.070 15.584 -28.166
1504.590 14.579 163.828
1590.790 13.489 -13.891
1681.920 12.380 159.077
1778.280 11.413 -38.437
1880.150 10.533 111.917
1987.870 9.606 -110.736
2101.750 8.546 13.530
2222.150 7.357 124.344
2349.460 6.058 -138.913
2484.060 4.611 -57.243
2626.360 2.860 9.472
2776.820 1.000 62.197
2935.900 -0.677 99.004
3104.100 -2.250 118.616
3281.930 -3.384 119.724
3469.940 -4.077 98.812
3668.730 -4.530 52.089
3878.910 -5.351 -20.513
4101.130 -6.526 -119.384
4336.070 -8.217 117.072
4584.480 -9.995 -31.592
4847.120 -11.683 152.028
5124.810 -13.239 -54.954
5418.400 -14.790 65.367
5728.810 -16.430 150.443
6057.010 -18.257 -160.412
6404.000 -20.008 -147.940
6770.880 -21.761 -176.918
7158.770 -23.682 111.111
7568.890 -25.618 -5.993
8002.500 -27.611 -171.105
8460.950 -29.774 -27.484
8945.670 -32.176 63.013
9458.160 -34.657 96.248
10000.000 -37.501 67.969
