# Freq(Hz) SPL(dB) Phase (degrees)
10.000 51.288 -75.907
10.570 52.176 -80.103
11.180 53.067 -84.575
11.820 53.945 -89.250
12.500 54.819 -94.197
13.210 55.675 -99.343
13.970 56.533 -104.832
14.770 57.379 -110.592
15.620 58.220 -116.694
16.510 59.044 -123.072
17.460 59.866 -129.872
18.460 60.674 -137.030
19.510 61.465 -144.558
20.630 62.250 -152.614
21.810 63.017 -161.145
23.060 63.767 -170.250
24.380 64.491 -179.955
25.780 65.185 169.631
27.260 65.835 158.481
28.820 66.424 146.575
30.470 66.934 133.841
32.220 67.341 120.247
34.060 67.617 105.972
36.010 67.739 91.037
38.080 67.691 75.606
40.260 67.468 60.028
42.560 67.080 44.493
45.000 66.546 29.088
47.580 65.891 13.969
50.310 65.143 -0.839
53.190 64.328 -15.311
56.230 63.464 -29.513
59.460 62.562 -43.608
62.860 61.640 -57.544
66.460 60.701 -71.484
70.270 59.749 -85.499
74.300 58.790 -99.653
78.550 57.827 -113.974
83.050 56.859 -128.583
87.810 55.888 -143.528
92.840 54.915 -158.855
98.160 53.939 -174.633
103.780 52.961 169.099
109.730 51.980 152.248
116.020 50.997 134.781
122.660 50.013 116.668
129.690 49.024 97.795
137.120 48.033 78.137
144.970 47.040 57.637
153.280 46.041 36.193
162.060 45.040 13.780
171.340 44.034 -9.677
181.160 43.022 -34.277
191.540 42.006 -60.064
202.510 40.984 -87.109
214.110 39.956 -115.504
226.380 38.922 -145.336
239.350 37.881 -176.669
253.060 36.834 150.413
267.560 35.782 115.805
282.890 34.727 79.425
299.090 33.670 41.193
316.230 32.614 0.955
334.340 31.565 -41.351
353.500 30.526 -85.913
373.750 29.502 -132.831
395.160 28.499 177.713
417.800 27.520 125.532
441.730 26.571 70.458
467.040 25.652 12.251
493.800 24.770 -49.280
522.090 23.931 -114.366
552.000 23.141 176.698
583.620 22.405 103.557
617.050 21.712 25.785
652.400 21.030 -57.028
689.780 20.314 -145.147
729.290 19.527 121.383
771.080 18.660 22.489
815.250 17.733 -81.886
861.950 16.763 167.916
911.330 15.750 51.492
963.540 14.681 -71.493
1018.740 13.541 158.694
1077.110 12.323 21.838
1138.810 11.044 -122.130
1204.050 9.782 86.676
1273.030 8.618 -72.723
1345.960 7.566 118.708
1423.070 6.613 -59.987
1504.590 5.709 109.977
1590.790 4.670 -92.146
1681.920 3.398 54.107
1778.280 1.927 -171.214
1880.150 0.296 -48.069
1987.870 -1.331 63.326
2101.750 -2.774 161.490
2222.150 -4.014 -115.512
2349.460 -5.122 -49.961
2484.060 -6.468 -3.081
2626.360 -8.239 26.853
2776.820 -10.157 41.562
2935.900 -11.524 38.860
3104.100 -12.797 12.674
3281.930 -13.248 -39.966
3469.940 -14.702 -116.620
3668.730 -16.377 143.467
3878.910 -17.760 17.786
4101.130 -19.257 -138.704
4336.070 -21.398 34.798
4584.480 -23.803 -178.696
4847.120 -26.038 -64.460
5124.810 -28.516 13.346
5418.400 -31.353 58.815
5728.810 -33.646 66.238
6057.010 -36.119 29.603
6404.000 -38.777 -50.332
6770.880 -41.954 -177.303
7158.770 -46.453 4.437
7568.890 -50.836 134.648
8002.500 -59.148 -141.457
8460.950 -79.756 -81.858
8945.670 -64.782 26.444
9458.160 -61.308 -80.540
10000.000 -60.611 115.154
