# Freq(Hz) SPL(dB) Phase (degrees)
10.000 50.976 -76.770
10.570 51.864 -81.014
11.180 52.756 -85.539
11.820 53.633 -90.269
12.500 54.508 -95.275
13.210 55.364 -100.482
13.970 56.223 -106.037
14.770 57.069 -111.865
15.620 57.911 -118.042
16.510 58.735 -124.496
17.460 59.558 -131.378
18.460 60.366 -138.623
19.510 61.158 -146.242
20.630 61.944 -154.394
21.810 62.712 -163.028
23.060 63.463 -172.240
24.380 64.188 177.939
25.780 64.884 167.405
27.260 65.535 156.126
28.820 66.126 144.084
30.470 66.638 131.207
32.220 67.047 117.460
34.060 67.325 103.026
36.010 67.450 87.920
38.080 67.405 72.308
40.260 67.185 56.539
42.560 66.801 40.803
45.000 66.270 25.183
47.580 65.620 9.837
50.310 64.877 -5.212
53.190 64.067 -19.939
56.230 63.211 -34.411
59.460 62.315 -48.794
62.860 61.401 -63.034
66.460 60.471 -77.298
70.270 59.529 -91.657
74.300 58.580 -106.177
78.550 57.630 -120.886
83.050 56.676 -135.909
87.810 55.720 -151.296
92.840 54.763 -167.092
98.160 53.806 176.627
103.780 52.850 159.823
109.730 51.892 142.398
116.020 50.935 124.317
122.660 49.980 105.544
129.690 49.024 85.964
137.120 48.068 65.542
144.970 47.114 44.221
153.280 46.159 21.887
162.060 45.205 -1.489
171.340 44.251 -25.993
181.160 43.297 -51.732
191.540 42.343 -78.764
202.510 41.388 -107.171
214.110 40.431 -137.059
226.380 39.472 -168.535
239.350 38.509 158.323
253.060 37.542 123.412
267.560 36.569 86.605
282.890 35.590 47.804
299.090 34.602 6.912
316.230 33.606 -36.244
334.340 32.601 -81.733
353.500 31.587 -129.757
373.750 30.566 179.578
395.160 29.535 126.084
417.800 28.496 69.558
441.730 27.443 9.813
467.040 26.368 -53.417
493.800 25.257 -120.337
522.090 24.090 168.865
552.000 22.841 94.046
583.620 21.492 15.146
617.050 20.033 -67.851
652.400 18.465 -154.970
689.780 16.804 113.759
729.290 15.072 18.322
771.080 13.303 -81.389
815.250 11.559 174.637
861.950 9.945 66.156
911.330 8.604 -47.569
963.540 7.640 -168.079
1018.740 7.005 62.670
1077.110 6.483 -76.805
1138.810 5.817 133.370
1204.050 4.869 -26.193
1273.030 3.660 165.116
1345.960 2.243 -12.947
1423.070 0.586 159.043
1504.590 -1.424 -39.176
1590.790 -3.979 113.513
1681.920 -6.952 -99.118
1778.280 -9.264 45.437
1880.150 -9.646 178.508
1987.870 -8.858 -70.657
2101.750 -8.086 16.713
2222.150 -7.875 83.003
2349.460 -8.416 130.466
2484.060 -9.591 160.844
2626.360 -11.170 174.054
2776.820 -13.144 168.996
2935.900 -15.483 146.739
3104.100 -17.378 108.312
3281.930 -18.243 44.995
3469.940 -18.913 -50.481
3668.730 -20.652 -178.433
3878.910 -24.064 25.419
4101.130 -29.620 -153.159
4336.070 -36.315 32.696
4584.480 -35.162 -172.928
4847.120 -35.508 -84.818
5124.810 -38.124 -29.064
5418.400 -40.977 2.179
5728.810 -40.545 -20.056
6057.010 -40.568 -106.055
6404.000 -46.718 132.056
6770.880 -57.181 -28.814
7158.770 -61.561 163.752
7568.890 -65.472 -96.621
8002.500 -70.706 50.190
8460.950 -73.222 59.884
8945.670 -68.858 27.140
9458.160 -68.492 -112.106
10000.000 -66.762 47.628
