# Freq(Hz) SPL(dB) Phase (degrees)
10.000 51.162 -76.255
10.570 52.049 -80.470
11.180 52.941 -84.963
11.820 53.819 -89.660
12.500 54.693 -94.631
13.210 55.549 -99.802
13.970 56.408 -105.317
14.770 57.254 -111.105
15.620 58.095 -117.237
16.510 58.919 -123.646
17.460 59.742 -130.479
18.460 60.550 -137.672
19.510 61.342 -145.236
20.630 62.127 -153.331
21.810 62.895 -161.904
23.060 63.645 -171.052
24.380 64.371 179.196
25.780 65.066 168.733
27.260 65.717 157.531
28.820 66.306 145.570
30.470 66.817 132.778
32.220 67.226 119.122
34.060 67.503 104.782
36.010 67.627 89.778
38.080 67.581 74.273
40.260 67.360 58.617
42.560 66.975 43.000
45.000 66.442 27.507
47.580 65.791 12.295
50.310 65.046 -2.612
53.190 64.234 -17.189
56.230 63.375 -31.502
59.460 62.478 -45.716
62.860 61.561 -59.778
66.460 60.627 -73.853
70.270 59.682 -88.012
74.300 58.729 -102.320
78.550 57.775 -116.804
83.050 56.815 -131.589
87.810 55.854 -146.723
92.840 54.892 -162.251
98.160 53.928 -178.247
103.780 52.964 165.250
109.730 51.998 148.145
116.020 51.032 130.405
122.660 50.066 111.994
129.690 49.099 92.797
137.120 48.131 72.785
144.970 47.162 51.898
153.280 46.192 30.028
162.060 45.220 7.145
171.340 44.248 -16.833
181.160 43.272 -42.011
191.540 42.294 -68.443
202.510 41.312 -96.209
214.110 40.326 -125.410
226.380 39.333 -156.148
239.350 38.333 171.504
253.060 37.325 137.449
267.560 36.306 101.568
282.890 35.275 63.773
299.090 34.232 23.975
316.230 33.173 -17.983
334.340 32.102 -62.164
353.500 31.015 -108.750
373.750 29.916 -157.837
395.160 28.803 150.403
417.800 27.674 95.789
441.730 26.525 38.163
467.040 25.345 -22.688
493.800 24.119 -86.881
522.090 22.834 -154.472
552.000 21.489 134.561
583.620 20.108 60.286
617.050 18.752 -17.375
652.400 17.497 -98.849
689.780 16.387 175.092
729.290 15.402 83.627
771.080 14.478 -13.930
815.250 13.548 -117.856
861.950 12.561 131.617
911.330 11.482 14.275
963.540 10.274 -110.115
1018.740 8.881 118.232
1077.110 7.201 -20.642
1138.810 5.136 -165.594
1204.050 2.831 45.170
1273.030 0.882 -106.666
1345.960 0.109 94.507
1423.070 0.296 -79.048
1504.590 0.522 90.296
1590.790 0.216 -115.377
1681.920 -0.724 26.564
1778.280 -2.164 157.560
1880.150 -3.950 -81.463
1987.870 -5.682 30.232
2101.750 -6.648 130.490
2222.150 -6.782 -148.652
2349.460 -7.110 -90.420
2484.060 -8.161 -51.677
2626.360 -9.886 -30.035
2776.820 -12.066 -24.748
2935.900 -14.340 -34.639
3104.100 -15.694 -63.178
3281.930 -16.657 -122.341
3469.940 -18.976 150.365
3668.730 -23.085 45.625
3878.910 -25.874 -65.145
4101.130 -25.968 139.796
4336.070 -28.427 -50.711
4584.480 -30.821 101.984
4847.120 -30.548 -146.567
5124.810 -32.361 -84.583
5418.400 -35.559 -54.085
5728.810 -38.274 -56.922
6057.010 -44.114 -125.690
6404.000 -49.075 175.718
6770.880 -53.009 42.322
7158.770 -57.875 -101.458
7568.890 -57.625 28.947
8002.500 -68.099 96.271
8460.950 -71.240 -177.019
8945.670 -70.017 125.021
9458.160 -68.979 78.078
10000.000 -68.118 -103.242
