# Freq(Hz) SPL(dB) Phase (degrees)
10.000 53.712 -70.215
10.570 54.600 -74.086
11.180 55.491 -78.211
11.820 56.369 -82.520
12.500 57.244 -87.080
13.210 58.100 -91.822
13.970 58.959 -96.878
14.770 59.805 -102.181
15.620 60.647 -107.800
16.510 61.472 -113.670
17.460 62.294 -119.928
18.460 63.103 -126.516
19.510 63.895 -133.445
20.630 64.682 -140.861
21.810 65.450 -148.719
23.060 66.201 -157.109
24.380 66.927 -166.061
25.780 67.623 -175.674
27.260 68.275 174.022
28.820 68.866 163.009
30.470 69.379 151.219
32.220 69.789 138.627
34.060 70.068 125.408
36.010 70.195 111.591
38.080 70.151 97.349
40.260 69.933 83.024
42.560 69.551 68.812
45.000 69.023 54.811
47.580 68.376 41.179
50.310 67.637 27.947
53.190 66.832 15.138
56.230 65.980 2.695
59.460 65.092 -9.529
62.860 64.185 -21.494
66.460 63.264 -33.345
70.270 62.334 -45.146
74.300 61.399 -56.956
78.550 60.465 -68.804
83.050 59.530 -80.795
87.810 58.597 -92.970
92.840 57.669 -105.372
98.160 56.745 -118.063
103.780 55.828 -131.077
109.730 54.917 -144.497
116.020 54.015 -158.354
122.660 53.123 -172.684
129.690 52.241 172.414
137.120 51.371 156.904
144.970 50.515 140.730
153.280 49.669 123.789
162.060 48.838 106.042
171.340 48.019 87.408
181.160 47.211 67.785
191.540 46.412 47.112
202.510 45.620 25.311
214.110 44.830 2.289
226.380 44.038 -22.043
239.350 43.239 -47.742
253.060 42.427 -74.877
267.560 41.596 -103.520
282.890 40.741 -133.713
299.090 39.860 -165.476
316.230 38.950 161.121
334.340 38.016 126.098
353.500 37.066 89.377
373.750 36.116 50.936
395.160 35.186 10.650
417.800 34.298 -31.680
441.730 33.469 -76.315
467.040 32.702 -123.639
493.800 31.980 -173.996
522.090 31.265 132.357
552.000 30.518 75.330
583.620 29.716 15.019
617.050 28.879 -48.464
652.400 28.058 -115.247
689.780 27.300 174.168
729.290 26.589 99.137
771.080 25.858 19.167
815.250 25.041 -65.761
861.950 24.106 -155.561
911.330 23.052 109.817
963.540 21.880 10.418
1018.740 20.606 -93.506
1077.110 19.352 158.406
1138.810 18.358 45.505
1204.050 17.732 -74.431
1273.030 17.280 156.749
1345.960 16.797 18.610
1423.070 16.138 -128.723
1504.590 15.224 75.172
1590.790 14.032 -89.241
1681.920 12.638 99.056
1778.280 11.386 -80.029
1880.150 10.455 91.024
1987.870 9.768 -109.719
2101.750 9.153 36.046
2222.150 8.371 168.569
2349.460 7.489 -72.279
2484.060 6.466 32.951
2626.360 5.234 123.567
2776.820 3.749 -159.583
2935.900 2.374 -95.517
3104.100 1.726 -49.884
3281.930 0.749 -27.377
3469.940 -1.061 -22.015
3668.730 -2.621 -31.830
3878.910 -3.742 -64.741
4101.130 -5.043 -120.623
4336.070 -6.294 158.931
4584.480 -8.006 53.958
4847.120 -9.257 -75.027
5124.810 -10.684 124.230
5418.400 -12.321 -62.742
5728.810 -13.739 77.816
6057.010 -15.278 -173.135
6404.000 -16.596 -100.090
6770.880 -17.948 -64.257
7158.770 -19.378 -67.453
7568.890 -20.820 -113.691
8002.500 -22.269 158.028
8460.950 -23.848 22.012
8945.670 -25.446 -162.469
9458.160 -27.092 -37.784
10000.000 -28.837 31.508
