# Freq(Hz) SPL(dB) Phase (degrees)
10.000 50.835 -77.168
10.570 51.723 -81.435
11.180 52.615 -85.984
11.820 53.492 -90.739
12.500 54.367 -95.773
13.210 55.223 -101.008
13.970 56.082 -106.593
14.770 56.928 -112.454
15.620 57.770 -118.664
16.510 58.595 -125.154
17.460 59.417 -132.073
18.460 60.226 -139.358
19.510 61.018 -147.019
20.630 61.804 -155.216
21.810 62.573 -163.897
23.060 63.323 -173.159
24.380 64.049 176.968
25.780 64.745 166.378
27.260 65.397 155.040
28.820 65.988 142.936
30.470 66.500 129.993
32.220 66.909 116.176
34.060 67.188 101.668
36.010 67.314 86.485
38.080 67.269 70.790
40.260 67.050 54.935
42.560 66.666 39.106
45.000 66.136 23.389
47.580 65.487 7.940
50.310 64.745 -7.218
53.190 63.937 -22.060
56.230 63.081 -36.653
59.460 62.187 -51.165
62.860 61.275 -65.541
66.460 60.346 -79.949
70.270 59.406 -94.460
74.300 58.460 -109.142
78.550 57.512 -124.021
83.050 56.560 -139.224
87.810 55.607 -154.801
92.840 54.654 -170.799
98.160 53.701 172.707
103.780 52.748 155.678
109.730 51.796 138.015
116.020 50.843 119.681
122.660 49.894 100.644
129.690 48.944 80.782
137.120 47.996 60.063
144.970 47.049 38.429
153.280 46.103 15.764
162.060 45.160 -7.961
171.340 44.217 -32.832
181.160 43.276 -58.959
191.540 42.336 -86.399
202.510 41.398 -115.236
214.110 40.460 -145.577
226.380 39.523 -177.530
239.350 38.585 148.825
253.060 37.648 113.383
267.560 36.709 76.014
282.890 35.769 36.617
299.090 34.827 -4.910
316.230 33.884 -48.744
334.340 32.940 -94.959
353.500 31.996 -143.763
373.750 31.054 164.736
395.160 30.116 110.347
417.800 29.182 52.867
441.730 28.252 -7.888
467.040 27.325 -72.190
493.800 26.395 -140.261
522.090 25.454 147.664
552.000 24.491 71.346
583.620 23.495 -9.425
617.050 22.458 -94.862
652.400 21.375 174.798
689.780 20.243 79.314
729.290 19.062 -21.532
771.080 17.834 -128.098
815.250 16.564 119.353
861.950 15.258 0.381
911.330 13.917 -125.513
963.540 12.531 101.096
1018.740 11.069 -40.419
1077.110 9.470 169.391
1138.810 7.731 10.510
1204.050 5.720 -157.550
1273.030 3.693 24.953
1345.960 1.679 -163.478
1423.070 -0.298 -4.520
1504.590 -2.223 140.470
1590.790 -4.056 -89.146
1681.920 -5.523 27.558
1778.280 -6.420 131.479
1880.150 -6.834 -136.711
1987.870 -7.026 -57.154
2101.750 -7.170 9.440
2222.150 -7.462 61.640
2349.460 -7.940 97.693
2484.060 -8.762 116.882
2626.360 -9.821 118.701
2776.820 -11.029 101.149
2935.900 -12.518 62.311
3104.100 -14.236 1.754
3281.930 -16.281 -82.642
3469.940 -18.784 167.097
3668.730 -21.827 29.154
3878.910 -25.967 -138.483
4101.130 -31.111 23.712
4336.070 -38.411 141.791
4584.480 -45.094 175.931
4847.120 -41.399 -163.292
5124.810 -39.866 -140.979
5418.400 -40.559 -143.900
5728.810 -41.528 170.499
6057.010 -44.075 82.533
6404.000 -46.422 -58.587
6770.880 -54.486 109.260
7158.770 -62.018 -134.570
7568.890 -81.726 159.330
8002.500 -68.209 161.034
8460.950 -75.092 148.346
8945.670 -66.119 100.987
9458.160 -73.003 -20.991
10000.000 -75.096 -14.711
