# Freq(Hz) SPL(dB) Phase (degrees)
10.000 51.008 -76.678
10.570 51.896 -80.917
11.180 52.788 -85.436
11.820 53.665 -90.160
12.500 54.540 -95.160
13.210 55.396 -100.361
13.970 56.254 -105.908
14.770 57.100 -111.729
15.620 57.942 -117.898
16.510 58.766 -124.344
17.460 59.588 -131.217
18.460 60.396 -138.453
19.510 61.188 -146.062
20.630 61.974 -154.204
21.810 62.741 -162.827
23.060 63.492 -172.027
24.380 64.217 178.164
25.780 64.912 167.643
27.260 65.563 156.378
28.820 66.152 144.351
30.470 66.663 131.489
32.220 67.072 117.759
34.060 67.349 103.342
36.010 67.473 88.255
38.080 67.426 72.663
40.260 67.205 56.915
42.560 66.820 41.200
45.000 66.287 25.605
47.580 65.635 10.284
50.310 64.890 -4.739
53.190 64.078 -19.437
56.230 63.219 -33.879
59.460 62.321 -48.229
62.860 61.403 -62.434
66.460 60.469 -76.661
70.270 59.523 -90.980
74.300 58.570 -105.458
78.550 57.615 -120.121
83.050 56.655 -135.095
87.810 55.692 -150.428
92.840 54.728 -166.166
98.160 53.763 177.616
103.780 52.798 160.880
109.730 51.830 143.529
116.020 50.861 125.530
122.660 49.893 106.847
129.690 48.923 87.365
137.120 47.951 67.053
144.970 46.979 45.854
153.280 46.005 23.657
162.060 45.029 0.434
171.340 44.051 -23.896
181.160 43.069 -49.439
191.540 42.085 -76.247
202.510 41.098 -104.399
214.110 40.106 -133.994
226.380 39.108 -165.134
239.350 38.104 162.109
253.060 37.093 127.640
267.560 36.074 91.340
282.890 35.047 53.118
299.090 34.012 12.885
316.230 32.967 -29.520
334.340 31.914 -74.161
353.500 30.853 -121.223
373.750 29.785 -170.798
395.160 28.713 136.948
417.800 27.635 81.846
441.730 26.553 23.751
467.040 25.463 -37.546
493.800 24.366 -102.189
522.090 23.260 -170.322
552.000 22.151 117.907
583.620 21.055 42.339
617.050 19.994 -37.278
652.400 18.990 -121.325
689.780 18.046 149.740
729.290 17.150 55.525
771.080 16.281 -44.342
815.250 15.436 -150.058
861.950 14.625 98.004
911.330 13.854 -20.605
963.540 13.129 -146.387
1018.740 12.445 79.997
1077.110 11.755 -62.262
1138.810 10.949 146.278
1204.050 9.966 -13.805
1273.030 8.825 177.153
1345.960 7.595 -1.136
1423.070 6.290 170.458
1504.590 4.840 -28.785
1590.790 3.133 120.925
1681.920 1.183 -99.851
1778.280 -0.913 28.736
1880.150 -3.040 146.729
1987.870 -4.934 -106.641
2101.750 -6.368 -13.565
2222.150 -7.295 62.811
2349.460 -7.994 119.136
2484.060 -8.982 154.743
2626.360 -10.425 171.237
2776.820 -12.322 168.681
2935.900 -14.658 149.477
3104.100 -16.505 112.221
3281.930 -17.715 52.280
3469.940 -18.713 -36.619
3668.730 -20.139 -155.058
3878.910 -22.403 60.883
4101.130 -24.991 -107.335
4336.070 -26.882 60.640
4584.480 -27.592 -168.229
4847.120 -28.647 -80.984
5124.810 -31.050 -31.464
5418.400 -34.625 -13.112
5728.810 -37.370 -27.955
6057.010 -39.175 -89.246
6404.000 -41.988 157.781
6770.880 -46.231 0.338
7158.770 -50.763 160.373
7568.890 -53.157 -104.615
8002.500 -63.383 -39.286
8460.950 -79.184 -86.218
8945.670 -74.792 27.099
9458.160 -64.578 -110.991
10000.000 -64.233 33.472
