# Freq(Hz) SPL(dB) Phase (degrees)
10.000 51.734 -74.736
10.570 52.622 -78.865
11.180 53.513 -83.266
11.820 54.390 -87.865
12.500 55.265 -92.733
13.210 56.120 -97.796
13.970 56.978 -103.196
14.770 57.824 -108.861
15.620 58.665 -114.865
16.510 59.489 -121.137
17.460 60.311 -127.826
18.460 61.119 -134.867
19.510 61.910 -142.272
20.630 62.695 -150.196
21.810 63.462 -158.589
23.060 64.211 -167.547
24.380 64.935 -177.098
25.780 65.629 172.654
27.260 66.279 161.678
28.820 66.868 149.955
30.470 67.377 137.415
32.220 67.784 124.026
34.060 68.059 109.969
36.010 68.182 95.264
38.080 68.133 80.076
40.260 67.909 64.756
42.560 67.521 49.493
45.000 66.986 34.376
47.580 66.331 19.562
50.310 65.582 5.078
53.190 64.766 -9.053
56.230 63.902 -22.894
59.460 63.000 -36.605
62.860 62.077 -50.135
66.460 61.137 -63.646
70.270 60.184 -77.206
74.300 59.224 -90.877
78.550 58.261 -104.688
83.050 57.293 -118.757
87.810 56.321 -133.129
92.840 55.347 -147.848
98.160 54.371 -162.984
103.780 53.394 -178.571
109.730 52.413 165.299
116.020 51.431 148.596
122.660 50.449 131.289
129.690 49.463 113.271
137.120 48.476 94.514
144.970 47.487 74.966
153.280 46.495 54.526
162.060 45.502 33.169
171.340 44.505 10.821
181.160 43.506 -12.614
191.540 42.503 -37.184
202.510 41.497 -62.958
214.110 40.486 -90.029
226.380 39.471 -118.485
239.350 38.450 -148.392
253.060 37.425 -179.835
267.560 36.394 147.080
282.890 35.358 112.272
299.090 34.319 75.658
316.230 33.278 37.084
334.340 32.238 -3.521
353.500 31.200 -46.347
373.750 30.166 -91.505
395.160 29.135 -139.177
417.800 28.102 170.457
441.730 27.060 117.264
467.040 26.003 61.075
493.800 24.928 1.803
522.090 23.841 -60.659
552.000 22.757 -126.501
583.620 21.688 163.978
617.050 20.621 90.395
652.400 19.515 12.475
689.780 18.328 -69.748
729.290 17.058 -155.917
771.080 15.794 114.216
815.250 14.706 20.407
861.950 13.935 -78.787
911.330 13.434 174.670
963.540 12.987 59.564
1018.740 12.350 -64.235
1077.110 11.326 164.015
1138.810 9.793 26.140
1204.050 8.147 -115.624
1273.030 6.931 98.189
1345.960 6.495 -57.877
1423.070 6.254 132.006
1504.590 5.551 -51.290
1590.790 4.147 115.473
1681.920 2.454 -84.155
1778.280 1.322 67.761
1880.150 0.699 -155.548
1987.870 -0.264 -35.461
2101.750 -1.840 71.970
2222.150 -3.400 168.695
2349.460 -4.585 -110.673
2484.060 -6.055 -48.561
2626.360 -8.061 -1.604
2776.820 -9.918 31.265
2935.900 -11.260 43.274
3104.100 -13.443 32.036
3281.930 -16.124 9.030
3469.940 -17.034 -38.421
3668.730 -19.710 -115.485
3878.910 -21.182 156.948
4101.130 -22.713 27.149
4336.070 -24.859 -120.757
4584.480 -26.615 53.615
4847.120 -28.990 -157.011
5124.810 -32.142 -46.210
5418.400 -35.428 33.168
5728.810 -39.406 85.857
6057.010 -42.786 98.996
6404.000 -46.236 75.061
6770.880 -50.592 0.321
7158.770 -53.185 -108.371
7568.890 -58.457 84.791
8002.500 -63.966 -110.590
8460.950 -66.960 24.594
8945.670 -68.318 106.660
9458.160 -63.800 104.580
10000.000 -64.149 -2.435
