# Freq(Hz) SPL(dB) Phase (degrees)
10.000 50.847 -77.134
10.570 51.735 -81.399
11.180 52.627 -85.947
11.820 53.505 -90.699
12.500 54.379 -95.730
13.210 55.235 -100.964
13.970 56.094 -106.546
14.770 56.940 -112.404
15.620 57.782 -118.611
16.510 58.607 -125.098
17.460 59.430 -132.014
18.460 60.238 -139.296
19.510 61.030 -146.953
20.630 61.816 -155.146
21.810 62.585 -163.823
23.060 63.336 -173.081
24.380 64.061 177.050
25.780 64.757 166.465
27.260 65.409 155.132
28.820 66.000 143.034
30.470 66.512 130.096
32.220 66.922 116.285
34.060 67.200 101.784
36.010 67.326 86.607
38.080 67.282 70.919
40.260 67.062 55.071
42.560 66.679 39.250
45.000 66.149 23.541
47.580 65.500 8.101
50.310 64.759 -7.048
53.190 63.950 -21.881
56.230 63.095 -36.464
59.460 62.201 -50.965
62.860 61.289 -65.330
66.460 60.360 -79.726
70.270 59.421 -94.225
74.300 58.475 -108.893
78.550 57.527 -123.758
83.050 56.576 -138.947
87.810 55.624 -154.509
92.840 54.671 -170.491
98.160 53.718 173.032
103.780 52.767 156.020
109.730 51.814 138.375
116.020 50.863 120.061
122.660 49.915 101.042
129.690 48.966 81.200
137.120 48.019 60.503
144.970 47.074 38.890
153.280 46.129 16.247
162.060 45.187 -7.456
171.340 44.247 -32.305
181.160 43.307 -58.410
191.540 42.370 -85.829
202.510 41.434 -114.645
214.110 40.499 -144.968
226.380 39.564 -176.903
239.350 38.629 149.466
253.060 37.695 114.036
267.560 36.758 76.676
282.890 35.821 37.283
299.090 34.882 -4.243
316.230 33.940 -48.080
334.340 32.998 -94.306
353.500 32.056 -143.125
373.750 31.115 165.351
395.160 30.176 110.928
417.800 29.242 53.402
441.730 28.312 -7.419
467.040 27.382 -71.814
493.800 26.447 -140.010
522.090 25.496 147.749
552.000 24.515 71.222
583.620 23.490 -9.796
617.050 22.411 -95.508
652.400 21.270 173.859
689.780 20.063 78.077
729.290 18.786 -23.064
771.080 17.438 -129.911
815.250 16.021 117.285
861.950 14.535 -1.887
911.330 12.977 -127.891
963.540 11.340 98.715
1018.740 9.589 -42.760
1077.110 7.651 166.977
1138.810 5.450 7.710
1204.050 2.834 -161.089
1273.030 -0.094 20.369
1345.960 -3.337 -169.538
1423.070 -6.805 -13.933
1504.590 -10.140 122.304
1590.790 -12.200 -123.920
1681.920 -12.097 -21.163
1778.280 -11.178 79.044
1880.150 -10.441 173.111
1987.870 -10.132 -103.857
2101.750 -10.346 -34.208
2222.150 -11.211 20.895
2349.460 -12.411 61.088
2484.060 -13.983 83.545
2626.360 -16.281 87.555
2776.820 -19.392 75.198
2935.900 -23.147 46.221
3104.100 -28.065 7.141
3281.930 -30.865 -30.643
3469.940 -28.679 -105.035
3668.730 -26.870 127.999
3878.910 -27.360 -33.886
4101.130 -28.375 132.892
4336.070 -31.022 -93.396
4584.480 -36.045 9.467
4847.120 -47.192 67.266
5124.810 -47.319 -107.279
5418.400 -41.756 -104.663
5728.810 -41.008 -160.238
6057.010 -41.904 100.914
6404.000 -45.068 -44.087
6770.880 -51.559 99.605
7158.770 -66.632 -141.563
7568.890 -69.349 -160.488
8002.500 -67.757 176.675
8460.950 -75.612 179.467
8945.670 -69.734 143.384
9458.160 -66.184 20.695
10000.000 -69.295 140.571
