# Freq(Hz) SPL(dB) Phase (degrees)
10.000 53.531 -70.587
10.570 54.418 -74.479
11.180 55.310 -78.627
11.820 56.188 -82.960
12.500 57.062 -87.545
13.210 57.919 -92.314
13.970 58.777 -97.398
14.770 59.624 -102.731
15.620 60.465 -108.381
16.510 61.290 -114.284
17.460 62.112 -120.577
18.460 62.921 -127.203
19.510 63.713 -134.170
20.630 64.499 -141.629
21.810 65.267 -149.530
23.060 66.018 -157.967
24.380 66.744 -166.968
25.780 67.440 -176.633
27.260 68.091 173.008
28.820 68.682 161.937
30.470 69.194 150.087
32.220 69.604 137.430
34.060 69.883 124.142
36.010 70.009 110.254
38.080 69.964 95.934
40.260 69.745 81.529
42.560 69.363 67.232
45.000 68.834 53.142
47.580 68.186 39.415
50.310 67.445 26.082
53.190 66.639 13.169
56.230 65.786 0.614
59.460 64.896 -11.727
62.860 63.987 -23.815
66.460 63.064 -35.795
70.270 62.131 -47.732
74.300 61.193 -59.685
78.550 60.256 -71.682
83.050 59.318 -83.829
87.810 58.381 -96.167
92.840 57.448 -108.739
98.160 56.519 -121.605
103.780 55.597 -134.801
109.730 54.680 -148.408
116.020 53.772 -162.457
122.660 52.874 -176.984
129.690 51.986 167.914
137.120 51.109 152.202
144.970 50.246 135.822
153.280 49.396 118.675
162.060 48.561 100.719
171.340 47.740 81.873
181.160 46.931 62.034
191.540 46.136 41.138
202.510 45.351 19.104
214.110 44.572 -4.166
226.380 43.796 -28.767
239.350 43.018 -54.763
253.060 42.233 -82.232
267.560 41.435 -111.256
282.890 40.617 -141.886
299.090 39.778 -174.153
316.230 38.913 151.865
334.340 38.026 116.181
353.500 37.123 78.715
373.750 36.216 39.451
395.160 35.327 -1.720
417.800 34.476 -44.975
441.730 33.688 -90.562
467.040 32.971 -138.881
493.800 32.315 169.665
522.090 31.682 114.715
552.000 31.021 56.060
583.620 30.279 -6.269
617.050 29.437 -72.076
652.400 28.514 -141.165
689.780 27.572 146.470
729.290 26.677 70.527
771.080 25.865 -9.661
815.250 25.123 -94.708
861.950 24.402 174.873
911.330 23.653 78.850
963.540 22.859 -22.877
1018.740 22.027 -130.617
1077.110 21.121 115.043
1138.810 20.024 -6.018
1204.050 18.668 -132.953
1273.030 17.213 95.126
1345.960 15.915 -42.264
1423.070 14.921 173.441
1504.590 14.330 20.492
1590.790 14.050 -143.935
1681.920 13.656 39.068
1778.280 12.910 -149.242
1880.150 11.851 12.256
1987.870 10.610 163.626
2101.750 9.288 -55.393
2222.150 8.061 74.493
2349.460 7.005 -168.501
2484.060 6.129 -66.185
2626.360 5.204 19.936
2776.820 4.076 89.915
2935.900 2.869 144.389
3104.100 1.710 -179.980
3281.930 0.031 -163.105
3469.940 -2.027 -161.874
3668.730 -3.573 -176.249
3878.910 -4.221 144.603
4101.130 -5.418 77.010
4336.070 -7.236 -10.695
4584.480 -8.436 -121.814
4847.120 -9.727 97.491
5124.810 -10.967 -71.122
5418.400 -12.296 89.292
5728.810 -13.697 -140.480
6057.010 -14.623 -44.451
6404.000 -15.891 13.783
6770.880 -16.986 34.794
7158.770 -18.358 13.977
7568.890 -19.782 -46.868
8002.500 -21.147 -153.117
8460.950 -22.609 53.439
8945.670 -24.076 -149.546
9458.160 -25.456 -45.136
10000.000 -26.992 2.588
