# Freq(Hz) SPL(dB) Phase (degrees)
10.000 51.207 -76.129
10.570 52.095 -80.336
11.180 52.986 -84.822
11.820 53.864 -89.511
12.500 54.738 -94.473
13.210 55.594 -99.635
13.970 56.452 -105.141
14.770 57.298 -110.918
15.620 58.139 -117.040
16.510 58.963 -123.437
17.460 59.785 -130.258
18.460 60.593 -137.439
19.510 61.384 -144.990
20.630 62.170 -153.070
21.810 62.937 -161.628
23.060 63.687 -170.760
24.380 64.411 179.505
25.780 65.105 169.060
27.260 65.756 157.877
28.820 66.345 145.936
30.470 66.855 133.166
32.220 67.262 119.532
34.060 67.538 105.217
36.010 67.661 90.238
38.080 67.613 74.761
40.260 67.391 59.134
42.560 67.004 43.547
45.000 66.469 28.087
47.580 65.815 12.910
50.310 65.068 -1.959
53.190 64.254 -16.497
56.230 63.391 -30.768
59.460 62.490 -44.936
62.860 61.569 -58.950
66.460 60.631 -72.972
70.270 59.681 -87.075
74.300 58.723 -101.322
78.550 57.762 -115.742
83.050 56.796 -130.456
87.810 55.827 -145.514
92.840 54.855 -160.959
98.160 53.882 -176.865
103.780 52.907 166.732
109.730 51.929 149.736
116.020 50.949 132.115
122.660 49.968 113.836
129.690 48.984 94.787
137.120 47.997 74.938
144.970 47.008 54.235
153.280 46.015 32.572
162.060 45.018 9.923
171.340 44.018 -13.788
181.160 43.012 -38.663
191.540 42.001 -64.748
202.510 40.985 -92.115
214.110 39.962 -120.858
226.380 38.932 -151.070
239.350 37.895 177.187
253.060 36.850 143.824
267.560 35.798 108.733
282.890 34.739 71.834
299.090 33.675 33.046
316.230 32.606 -7.783
334.340 31.538 -50.712
353.500 30.471 -95.919
373.750 29.413 -143.498
395.160 28.366 166.385
417.800 27.336 113.555
441.730 26.326 57.858
467.040 25.340 -0.927
493.800 24.385 -62.975
522.090 23.471 -128.494
552.000 22.610 162.245
583.620 21.814 88.895
617.050 21.085 11.005
652.400 20.399 -71.910
689.780 19.714 -160.209
729.290 18.986 105.976
771.080 18.198 6.524
815.250 17.360 -98.628
861.950 16.486 150.177
911.330 15.576 32.516
963.540 14.615 -92.025
1018.740 13.576 136.161
1077.110 12.411 -3.225
1138.810 11.084 -150.093
1204.050 9.640 55.897
1273.030 8.201 -105.718
1345.960 6.836 84.264
1423.070 5.585 -94.977
1504.590 4.504 75.389
1590.790 3.514 -126.174
1681.920 2.477 19.731
1778.280 1.327 152.701
1880.150 -0.009 -87.568
1987.870 -1.575 18.981
2101.750 -3.291 112.487
2222.150 -5.057 -167.278
2349.460 -6.530 -101.149
2484.060 -7.606 -53.573
2626.360 -8.809 -26.490
2776.820 -10.402 -18.992
2935.900 -12.377 -29.439
3104.100 -14.383 -59.721
3281.930 -15.042 -105.762
3469.940 -15.663 175.581
3668.730 -16.839 67.125
3878.910 -18.787 -66.272
4101.130 -20.883 135.938
4336.070 -22.552 -51.184
4584.480 -24.479 87.826
4847.120 -27.202 -167.377
5124.810 -29.816 -90.595
5418.400 -32.080 -52.561
5728.810 -34.997 -55.064
6057.010 -37.649 -91.668
6404.000 -40.005 179.218
6770.880 -43.417 40.674
7158.770 -47.487 -141.454
7568.890 -52.537 -15.246
8002.500 -61.932 58.915
8460.950 -76.525 104.561
8945.670 -66.739 -167.329
9458.160 -61.928 84.322
10000.000 -62.161 -94.912
