# Freq(Hz) SPL(dB) Phase (degrees)
10.000 52.225 -73.513
10.570 53.113 -77.572
11.180 54.004 -81.898
11.820 54.881 -86.419
12.500 55.755 -91.203
13.210 56.611 -96.179
13.970 57.469 -101.486
14.770 58.315 -107.054
15.620 59.156 -112.953
16.510 59.979 -119.116
17.460 60.801 -125.688
18.460 61.609 -132.607
19.510 62.400 -139.883
20.630 63.184 -147.669
21.810 63.951 -155.918
23.060 64.700 -164.721
24.380 65.424 -174.110
25.780 66.118 175.814
27.260 66.767 165.020
28.820 67.355 153.489
30.470 67.865 141.153
32.220 68.271 127.981
34.060 68.546 114.151
36.010 68.667 99.687
38.080 68.618 84.756
40.260 68.394 69.706
42.560 68.005 54.729
45.000 67.469 39.916
47.580 66.813 25.425
50.310 66.063 11.282
53.190 65.247 -2.487
56.230 64.382 -15.946
59.460 63.478 -29.249
62.860 62.554 -42.349
66.460 61.613 -55.403
70.270 60.659 -68.477
74.300 59.698 -81.633
78.550 58.734 -94.898
83.050 57.765 -108.385
87.810 56.793 -122.140
92.840 55.819 -136.204
98.160 54.843 -150.643
103.780 53.867 -165.492
109.730 52.888 179.166
116.020 51.909 163.298
122.660 50.930 146.878
129.690 49.950 129.801
137.120 48.970 112.043
144.970 47.992 93.553
153.280 47.012 74.233
162.060 46.035 54.060
171.340 45.058 32.960
181.160 44.083 10.840
191.540 43.109 -12.350
202.510 42.138 -36.681
214.110 41.168 -62.245
226.380 40.200 -89.135
239.350 39.233 -117.421
253.060 38.267 -147.193
267.560 37.301 -178.561
282.890 36.334 148.384
299.090 35.368 113.554
316.230 34.398 76.796
334.340 33.427 38.042
353.500 32.448 -2.879
373.750 31.462 -46.049
395.160 30.462 -91.598
417.800 29.446 -139.634
441.730 28.412 169.783
467.040 27.365 116.550
493.800 26.321 60.597
522.090 25.306 1.769
552.000 24.348 -60.235
583.620 23.463 -125.844
617.050 22.638 164.449
652.400 21.838 90.217
689.780 21.014 11.208
729.290 20.125 -72.626
771.080 19.149 -161.324
815.250 18.088 105.194
861.950 16.955 6.942
911.330 15.810 -95.994
963.540 14.796 156.099
1018.740 14.051 41.763
1077.110 13.484 -81.260
1138.810 12.762 146.270
1204.050 11.533 4.870
1273.030 9.796 -142.432
1345.960 7.903 66.468
1423.070 6.631 -89.851
1504.590 6.108 101.386
1590.790 5.304 -82.708
1681.920 3.647 82.550
1778.280 1.628 -118.471
1880.150 0.065 31.540
1987.870 -1.431 167.143
2101.750 -3.377 -67.957
2222.150 -4.613 46.694
2349.460 -5.714 140.691
2484.060 -7.946 -137.745
2626.360 -9.057 -64.394
2776.820 -9.593 -18.126
2935.900 -11.206 12.118
3104.100 -11.899 23.962
3281.930 -13.880 10.929
3469.940 -14.807 -16.725
3668.730 -16.805 -76.229
3878.910 -18.685 -149.610
4101.130 -20.833 106.959
4336.070 -23.282 -21.784
4584.480 -25.818 -170.813
4847.120 -28.505 5.394
5124.810 -30.544 155.465
5418.400 -32.618 -86.832
5728.810 -35.085 -7.236
6057.010 -37.694 34.947
6404.000 -40.891 37.359
6770.880 -45.412 -1.561
7158.770 -49.517 -82.135
7568.890 -53.683 154.031
8002.500 -60.930 43.559
8460.950 -65.342 -163.521
8945.670 -61.141 -19.304
9458.160 -58.732 1.784
10000.000 -59.615 -39.135
