# Freq(Hz) SPL(dB) Phase (degrees)
10.000 53.746 -70.144
10.570 54.634 -74.011
11.180 55.526 -78.132
11.820 56.404 -82.437
12.500 57.279 -86.992
13.210 58.135 -91.729
13.970 58.993 -96.779
14.770 59.840 -102.077
15.620 60.682 -107.689
16.510 61.506 -113.553
17.460 62.329 -119.804
18.460 63.138 -126.385
19.510 63.930 -133.307
20.630 64.716 -140.715
21.810 65.485 -148.565
23.060 66.236 -156.947
24.380 66.962 -165.889
25.780 67.658 -175.492
27.260 68.310 174.214
28.820 68.901 163.212
30.470 69.414 151.434
32.220 69.824 138.854
34.060 70.103 125.648
36.010 70.230 111.845
38.080 70.186 97.617
40.260 69.968 83.307
42.560 69.586 69.111
45.000 69.059 55.128
47.580 68.412 41.514
50.310 67.673 28.300
53.190 66.868 15.512
56.230 66.016 3.089
59.460 65.128 -9.113
62.860 64.222 -21.054
66.460 63.301 -32.881
70.270 62.371 -44.656
74.300 61.436 -56.440
78.550 60.502 -68.260
83.050 59.568 -80.221
87.810 58.636 -92.366
92.840 57.707 -104.737
98.160 56.784 -117.394
103.780 55.867 -130.375
109.730 54.957 -143.759
116.020 54.055 -157.581
122.660 53.164 -171.874
129.690 52.282 173.262
137.120 51.412 157.791
144.970 50.555 141.655
153.280 49.709 124.754
162.060 48.877 107.048
171.340 48.056 88.456
181.160 47.245 68.877
191.540 46.443 48.251
202.510 45.647 26.500
214.110 44.853 3.532
226.380 44.054 -20.738
239.350 43.248 -46.369
253.060 42.427 -73.425
267.560 41.586 -101.979
282.890 40.720 -132.068
299.090 39.826 -163.712
316.230 38.903 163.021
334.340 37.956 128.154
353.500 36.993 91.606
373.750 36.029 53.356
395.160 35.086 13.275
417.800 34.184 -28.834
441.730 33.340 -73.234
467.040 32.556 -120.297
493.800 31.814 -170.349
522.090 31.080 136.371
552.000 30.319 79.784
583.620 29.516 19.971
617.050 28.697 -43.020
652.400 27.913 -109.427
689.780 27.190 -179.838
729.290 26.488 105.132
771.080 25.723 25.131
815.250 24.827 -59.675
861.950 23.782 -149.048
911.330 22.608 117.166
963.540 21.329 19.107
1018.740 20.013 -82.831
1077.110 18.900 171.461
1138.810 18.275 59.850
1204.050 17.990 -60.992
1273.030 17.605 168.345
1345.960 16.946 28.851
1423.070 15.961 -118.808
1504.590 14.627 86.376
1590.790 13.154 -74.370
1681.920 11.957 118.174
1778.280 11.190 -59.261
1880.150 10.564 110.931
1987.870 9.806 -90.896
2101.750 8.980 55.821
2222.150 8.204 -169.924
2349.460 7.357 -50.394
2484.060 6.031 55.390
2626.360 4.497 150.343
2776.820 3.498 -127.683
2935.900 2.874 -65.104
3104.100 1.843 -22.845
3281.930 0.167 3.305
3469.940 -1.339 14.812
3668.730 -2.412 4.837
3878.910 -3.653 -27.324
4101.130 -4.958 -82.431
4336.070 -6.583 -160.044
4584.480 -7.860 99.315
4847.120 -9.186 -31.249
5124.810 -10.884 172.984
5418.400 -12.285 -13.775
5728.810 -13.993 130.785
6057.010 -15.485 -118.775
6404.000 -17.017 -42.278
6770.880 -18.571 -2.414
7158.770 -20.039 -3.665
7568.890 -21.567 -43.883
8002.500 -23.182 -129.051
8460.950 -24.825 99.640
8945.670 -26.544 -79.974
9458.160 -28.373 48.369
10000.000 -30.208 122.596
