# Freq(Hz) SPL(dB) Phase (degrees)
10.000 51.909 -74.291
10.570 52.796 -78.394
11.180 53.688 -82.768
11.820 54.565 -87.339
12.500 55.439 -92.176
13.210 56.295 -97.207
13.970 57.153 -102.573
14.770 57.999 -108.203
15.620 58.839 -114.168
16.510 59.663 -120.401
17.460 60.485 -127.047
18.460 61.292 -134.044
19.510 62.083 -141.401
20.630 62.868 -149.275
21.810 63.634 -157.615
23.060 64.383 -166.516
24.380 65.107 -176.008
25.780 65.801 173.807
27.260 66.450 162.898
28.820 67.038 151.246
30.470 67.547 138.781
32.220 67.953 125.472
34.060 68.228 111.499
36.010 68.349 96.883
38.080 68.300 81.791
40.260 68.075 66.572
42.560 67.686 51.415
45.000 67.149 36.412
47.580 66.493 21.720
50.310 65.742 7.364
53.190 64.925 -6.629
56.230 64.059 -20.324
59.460 63.154 -33.879
62.860 62.229 -47.243
66.460 61.286 -60.577
70.270 60.331 -73.946
74.300 59.368 -87.413
78.550 58.401 -101.006
83.050 57.429 -114.840
87.810 56.454 -128.959
92.840 55.476 -143.406
98.160 54.496 -158.247
103.780 53.514 -173.517
109.730 52.529 170.699
116.020 51.543 154.371
122.660 50.557 137.472
129.690 49.568 119.900
137.120 48.578 101.630
144.970 47.588 82.615
153.280 46.597 62.761
162.060 45.608 42.045
171.340 44.620 20.401
181.160 43.635 -2.263
191.540 42.654 -25.991
202.510 41.680 -50.851
214.110 40.714 -76.935
226.380 39.759 -104.338
239.350 38.818 -133.136
253.060 37.895 -163.432
267.560 36.990 164.641
282.890 36.107 130.970
299.090 35.247 95.432
316.230 34.410 57.838
334.340 33.594 18.084
353.500 32.795 -24.040
373.750 32.009 -68.648
395.160 31.229 -115.908
417.800 30.449 -165.971
441.730 29.661 141.056
467.040 28.861 85.014
493.800 28.050 25.804
522.090 27.230 -36.707
552.000 26.408 -102.694
583.620 25.590 -172.361
617.050 24.776 114.070
652.400 23.967 36.397
689.780 23.177 -45.543
729.290 22.437 -131.974
771.080 21.780 136.561
815.250 21.205 39.470
861.950 20.675 -63.859
911.330 20.137 -173.807
963.540 19.558 69.371
1018.740 18.908 -54.642
1077.110 18.132 173.875
1138.810 17.195 35.172
1204.050 16.102 -110.543
1273.030 15.036 96.579
1345.960 14.069 -64.548
1423.070 13.204 124.898
1504.590 12.376 -56.202
1590.790 11.437 111.502
1681.920 10.307 -91.572
1778.280 9.073 54.687
1880.150 7.861 -170.357
1987.870 6.726 -48.207
2101.750 5.571 59.831
2222.150 4.267 153.393
2349.460 2.845 -127.186
2484.060 1.492 -62.852
2626.360 0.190 -15.392
2776.820 -1.122 14.480
2935.900 -2.360 26.076
3104.100 -3.387 17.212
3281.930 -4.412 -14.682
3469.940 -5.691 -68.841
3668.730 -6.869 -146.604
3878.910 -8.168 109.411
4101.130 -9.643 -21.278
4336.070 -11.270 -179.920
4584.480 -13.159 -8.112
4847.120 -15.253 133.443
5124.810 -17.447 -116.791
5418.400 -19.703 -41.149
5728.810 -22.043 -2.031
6057.010 -24.266 -1.064
6404.000 -26.754 -42.347
6770.880 -29.366 -129.156
7158.770 -32.431 97.011
7568.890 -36.582 -85.725
8002.500 -41.576 43.065
8460.950 -49.916 112.145
8945.670 -72.498 55.926
9458.160 -51.038 -89.501
10000.000 -47.527 153.341
