# Freq(Hz) SPL(dB) Phase (degrees)
10.000 50.837 -77.163
10.570 51.725 -81.430
11.180 52.616 -85.980
11.820 53.494 -90.734
12.500 54.369 -95.767
13.210 55.225 -101.003
13.970 56.084 -106.587
14.770 56.930 -112.447
15.620 57.772 -118.657
16.510 58.596 -125.146
17.460 59.419 -132.066
18.460 60.228 -139.350
19.510 61.020 -147.010
20.630 61.806 -155.207
21.810 62.574 -163.887
23.060 63.325 -173.149
24.380 64.051 176.979
25.780 64.747 166.389
27.260 65.399 155.052
28.820 65.990 142.949
30.470 66.502 130.006
32.220 66.912 116.190
34.060 67.190 101.683
36.010 67.316 86.501
38.080 67.271 70.807
40.260 67.052 54.952
42.560 66.669 39.125
45.000 66.139 23.409
47.580 65.490 7.961
50.310 64.748 -7.196
53.190 63.940 -22.037
56.230 63.084 -36.630
59.460 62.191 -51.140
62.860 61.279 -65.515
66.460 60.350 -79.921
70.270 59.410 -94.431
74.300 58.464 -109.111
78.550 57.517 -123.989
83.050 56.566 -139.191
87.810 55.613 -154.767
92.840 54.660 -170.763
98.160 53.707 172.745
103.780 52.756 155.717
109.730 51.803 138.055
116.020 50.852 119.723
122.660 49.903 100.687
129.690 48.955 80.826
137.120 48.007 60.108
144.970 47.062 38.474
153.280 46.118 15.809
162.060 45.175 -7.917
171.340 44.235 -32.789
181.160 43.295 -58.919
191.540 42.357 -86.363
202.510 41.421 -115.204
214.110 40.486 -145.552
226.380 39.551 -177.513
239.350 38.617 148.830
253.060 37.682 113.374
267.560 36.747 75.988
282.890 35.810 36.570
299.090 34.872 -4.982
316.230 33.933 -48.844
334.340 32.993 -95.095
353.500 32.053 -143.938
373.750 31.115 164.515
395.160 30.181 110.071
417.800 29.252 52.527
441.730 28.327 -8.305
467.040 27.406 -72.702
493.800 26.481 -140.889
522.090 25.544 146.893
552.000 24.582 70.402
583.620 23.584 -10.572
617.050 22.541 -96.242
652.400 21.445 173.160
689.780 20.294 77.395
729.290 19.087 -23.751
771.080 17.823 -130.634
815.250 16.509 116.486
861.950 15.149 -2.825
911.330 13.745 -129.061
963.540 12.291 97.193
1018.740 10.758 -44.747
1077.110 9.085 164.465
1138.810 7.237 4.715
1204.050 5.099 -164.532
1273.030 2.878 16.594
1345.960 0.648 -173.319
1423.070 -1.476 -16.075
1504.590 -3.380 126.738
1590.790 -4.955 -105.520
1681.920 -6.007 9.189
1778.280 -6.506 112.744
1880.150 -6.663 -154.608
1987.870 -6.771 -74.098
2101.750 -7.014 -6.703
2222.150 -7.525 46.391
2349.460 -8.181 83.385
2484.060 -9.182 102.555
2626.360 -10.591 103.886
2776.820 -12.220 86.329
2935.900 -14.155 46.746
3104.100 -16.588 -15.220
3281.930 -19.847 -101.145
3469.940 -24.526 147.490
3668.730 -31.534 12.338
3878.910 -52.907 -127.410
4101.130 -36.143 171.500
4336.070 -32.843 -53.273
4584.480 -32.598 45.336
4847.120 -34.730 109.328
5124.810 -38.352 136.132
5418.400 -45.685 119.545
5728.810 -62.968 59.912
6057.010 -53.628 166.812
6404.000 -49.965 24.284
6770.880 -51.294 -161.058
7158.770 -54.154 -52.567
7568.890 -59.343 6.555
8002.500 -69.121 5.446
8460.950 -79.384 -121.555
8945.670 -71.815 -119.776
9458.160 -66.687 -2.268
10000.000 -65.893 86.606
