# Freq(Hz) SPL(dB) Phase (degrees)
10.000 51.240 -76.042
10.570 52.127 -80.245
11.180 53.019 -84.726
11.820 53.897 -89.409
12.500 54.771 -94.365
13.210 55.627 -99.521
13.970 56.485 -105.020
14.770 57.331 -110.791
15.620 58.173 -116.905
16.510 58.997 -123.294
17.460 59.819 -130.107
18.460 60.627 -137.279
19.510 61.419 -144.821
20.630 62.204 -152.892
21.810 62.972 -161.440
23.060 63.722 -170.561
24.380 64.447 179.714
25.780 65.142 169.282
27.260 65.793 158.111
28.820 66.382 146.184
30.470 66.893 133.427
32.220 67.301 119.808
34.060 67.578 105.508
36.010 67.702 90.545
38.080 67.655 75.085
40.260 67.434 59.476
42.560 67.048 43.908
45.000 66.515 28.468
47.580 65.863 13.311
50.310 65.117 -1.537
53.190 64.305 -16.052
56.230 63.445 -30.299
59.460 62.546 -44.443
62.860 61.628 -58.431
66.460 60.693 -72.428
70.270 59.747 -86.503
74.300 58.793 -100.723
78.550 57.837 -115.114
83.050 56.876 -129.799
87.810 55.912 -144.828
92.840 54.948 -160.244
98.160 53.981 -176.121
103.780 53.015 167.503
109.730 52.046 150.532
116.020 51.076 132.935
122.660 50.107 114.676
129.690 49.135 95.642
137.120 48.163 75.802
144.970 47.190 55.099
153.280 46.214 33.425
162.060 45.236 10.752
171.340 44.257 -13.001
181.160 43.274 -37.939
191.540 42.288 -64.114
202.510 41.297 -91.604
214.110 40.301 -120.509
226.380 39.298 -150.927
239.350 38.287 177.069
253.060 37.267 143.386
267.560 36.235 107.910
282.890 35.190 70.554
299.090 34.133 31.235
316.230 33.060 -10.202
334.340 31.974 -53.813
353.500 30.875 -99.778
373.750 29.764 -148.189
395.160 28.641 160.786
417.800 27.506 106.969
441.730 26.354 50.212
467.040 25.176 -9.685
493.800 23.963 -72.819
522.090 22.708 -139.231
552.000 21.423 151.079
583.620 20.152 78.070
617.050 18.958 1.430
652.400 17.890 -79.536
689.780 16.935 -165.690
729.290 16.017 102.340
771.080 15.047 4.207
815.250 13.956 -100.032
861.950 12.704 149.690
911.330 11.276 33.485
963.540 9.673 -88.472
1018.740 7.927 144.069
1077.110 6.119 11.468
1138.810 4.475 -125.851
1204.050 3.332 90.446
1273.030 2.872 -62.878
1345.960 2.762 130.722
1423.070 2.540 -49.453
1504.590 1.867 117.448
1590.790 0.555 -86.712
1681.920 -1.288 60.851
1778.280 -3.063 -158.499
1880.150 -4.099 -28.008
1987.870 -4.427 86.114
2101.750 -4.634 -178.975
2222.150 -5.268 -103.325
2349.460 -6.731 -45.097
2484.060 -9.013 0.020
2626.360 -11.075 35.076
2776.820 -11.930 50.389
2935.900 -12.825 37.937
3104.100 -14.700 1.315
3281.930 -18.063 -52.889
3469.940 -20.791 -115.562
3668.730 -21.412 147.634
3878.910 -23.982 18.025
4101.130 -27.287 -123.960
4336.070 -27.353 64.914
4584.480 -28.553 -154.926
4847.120 -31.319 -40.777
5124.810 -32.674 39.301
5418.400 -35.134 74.198
5728.810 -39.475 78.163
6057.010 -43.462 47.693
6404.000 -48.595 -36.451
6770.880 -49.631 -135.994
7158.770 -54.890 56.581
7568.890 -58.737 -153.120
8002.500 -71.061 -102.495
8460.950 -79.962 4.019
8945.670 -67.017 -23.111
9458.160 -69.480 -9.172
10000.000 -63.707 -169.717
