# Freq(Hz) SPL(dB) Phase (degrees)
10.000 53.774 -70.088
10.570 54.662 -73.952
11.180 55.554 -78.069
11.820 56.431 -82.371
12.500 57.306 -86.922
13.210 58.162 -91.655
13.970 59.021 -96.701
14.770 59.867 -101.995
15.620 60.709 -107.602
16.510 61.534 -113.461
17.460 62.357 -119.707
18.460 63.165 -126.282
19.510 63.957 -133.198
20.630 64.744 -140.600
21.810 65.512 -148.443
23.060 66.263 -156.818
24.380 66.989 -165.753
25.780 67.685 -175.348
27.260 68.337 174.367
28.820 68.928 163.373
30.470 69.441 151.604
32.220 69.851 139.034
34.060 70.130 125.838
36.010 70.256 112.046
38.080 70.213 97.829
40.260 69.995 83.531
42.560 69.613 69.348
45.000 69.085 55.378
47.580 68.438 41.778
50.310 67.698 28.579
53.190 66.893 15.806
56.230 66.041 3.400
59.460 65.153 -8.785
62.860 64.246 -20.708
66.460 63.325 -32.515
70.270 62.394 -44.271
74.300 61.459 -56.034
78.550 60.525 -67.831
83.050 59.590 -79.770
87.810 58.657 -91.891
92.840 57.728 -104.237
98.160 56.804 -116.869
103.780 55.886 -129.823
109.730 54.974 -143.180
116.020 54.070 -156.973
122.660 53.177 -171.237
129.690 52.293 173.929
137.120 51.420 158.489
144.970 50.560 142.385
153.280 49.710 125.519
162.060 48.872 107.849
171.340 48.046 89.296
181.160 47.228 69.759
191.540 46.418 49.180
202.510 45.612 27.482
214.110 44.806 4.575
226.380 43.995 -19.624
239.350 43.174 -45.172
253.060 42.337 -72.133
267.560 41.478 -100.575
282.890 40.594 -130.533
299.090 39.680 -162.029
316.230 38.737 164.874
334.340 37.769 130.196
353.500 36.784 93.857
373.750 35.798 55.834
395.160 34.831 15.997
417.800 33.904 -25.849
441.730 33.031 -69.955
467.040 32.215 -116.680
493.800 31.438 -166.325
522.090 30.674 140.887
552.000 29.892 84.870
583.620 29.086 25.656
617.050 28.282 -36.806
652.400 27.519 -102.854
689.780 26.797 -173.094
729.290 26.053 111.965
771.080 25.191 32.165
815.250 24.148 -52.087
861.950 22.932 -140.280
911.330 21.624 127.932
963.540 20.345 32.588
1018.740 19.264 -66.578
1077.110 18.631 -171.024
1138.810 18.421 75.929
1204.050 18.181 -47.769
1273.030 17.458 179.560
1345.960 16.244 40.095
1423.070 14.693 -104.983
1504.590 13.029 105.489
1590.790 11.901 -49.066
1681.920 11.507 145.102
1778.280 11.088 -34.379
1880.150 10.355 134.452
1987.870 9.313 -67.094
2101.750 8.288 81.352
2222.150 7.285 -142.984
2349.460 6.062 -19.717
2484.060 4.849 92.474
2626.360 4.239 -169.621
2776.820 3.591 -91.795
2935.900 2.110 -30.687
3104.100 0.449 19.577
3281.930 -0.420 51.737
3469.940 -1.509 61.902
3668.730 -2.796 52.440
3878.910 -4.383 22.724
4101.130 -5.640 -26.158
4336.070 -6.756 -102.963
4584.480 -8.464 157.562
4847.120 -9.756 31.949
5124.810 -11.375 -121.651
5418.400 -12.910 54.838
5728.810 -14.621 -158.210
6057.010 -16.440 -44.247
6404.000 -18.079 34.885
6770.880 -20.052 79.263
7158.770 -21.793 82.983
7568.890 -23.698 47.098
8002.500 -25.661 -32.834
8460.950 -27.741 -157.693
8945.670 -29.890 28.365
9458.160 -32.267 163.958
10000.000 -34.706 -115.165
