# Freq(Hz) SPL(dB) Phase (degrees)
10.000 51.517 -75.300
10.570 52.404 -79.461
11.180 53.296 -83.896
11.820 54.173 -88.532
12.500 55.048 -93.438
13.210 55.903 -98.541
13.970 56.762 -103.984
14.770 57.608 -109.695
15.620 58.449 -115.746
16.510 59.273 -122.069
17.460 60.095 -128.812
18.460 60.903 -135.909
19.510 61.694 -143.373
20.630 62.479 -151.361
21.810 63.246 -159.821
23.060 63.996 -168.849
24.380 64.720 -178.475
25.780 65.415 171.197
27.260 66.065 160.137
28.820 66.654 148.325
30.470 67.164 135.692
32.220 67.571 122.203
34.060 67.847 108.041
36.010 67.970 93.225
38.080 67.922 77.919
40.260 67.699 62.474
42.560 67.312 47.079
45.000 66.777 31.822
47.580 66.123 16.860
50.310 65.376 2.218
53.190 64.561 -12.079
56.230 63.698 -26.096
59.460 62.797 -39.994
62.860 61.876 -53.723
66.460 60.937 -67.444
70.270 59.987 -81.227
74.300 59.029 -95.137
78.550 58.068 -109.199
83.050 57.102 -123.535
87.810 56.133 -138.192
92.840 55.162 -153.214
98.160 54.189 -168.672
103.780 53.215 175.398
109.730 52.238 158.903
116.020 51.259 141.812
122.660 50.281 124.091
129.690 49.298 105.632
137.120 48.315 86.405
144.970 47.329 66.356
153.280 46.340 45.381
162.060 45.349 23.455
171.340 44.355 0.499
181.160 43.357 -23.584
191.540 42.354 -48.843
202.510 41.347 -75.352
214.110 40.333 -103.204
226.380 39.313 -132.492
239.350 38.284 -163.280
253.060 37.247 164.345
267.560 36.201 130.276
282.890 35.144 94.434
299.090 34.080 56.742
316.230 33.006 17.050
334.340 31.928 -24.701
353.500 30.847 -68.694
373.750 29.767 -115.028
395.160 28.688 -163.885
417.800 27.610 144.552
441.730 26.529 90.132
467.040 25.439 32.663
493.800 24.336 -27.958
522.090 23.226 -91.837
552.000 22.130 -159.147
583.620 21.072 129.781
617.050 20.055 54.421
652.400 19.033 -25.774
689.780 17.924 -111.067
729.290 16.647 158.745
771.080 15.168 64.155
815.250 13.545 -33.982
861.950 11.985 -135.147
911.330 10.817 119.851
963.540 10.241 8.162
1018.740 10.056 -113.431
1077.110 9.819 113.843
1138.810 9.133 -29.223
1204.050 7.855 179.930
1273.030 6.062 23.250
1345.960 4.184 -137.267
1423.070 2.984 56.946
1504.590 2.732 -120.787
1590.790 2.662 44.993
1681.920 2.090 -164.036
1778.280 0.849 -25.340
1880.150 -0.966 103.944
1987.870 -2.693 -134.252
2101.750 -3.429 -25.052
2222.150 -3.794 62.827
2349.460 -5.005 130.602
2484.060 -7.269 -174.293
2626.360 -9.174 -128.426
2776.820 -9.960 -104.375
2935.900 -11.498 -105.970
3104.100 -14.224 -123.322
3281.930 -16.064 -153.657
3469.940 -16.956 145.005
3668.730 -19.848 57.516
3878.910 -21.531 -40.945
4101.130 -22.392 179.100
4336.070 -24.854 18.105
4584.480 -25.927 -177.116
4847.120 -28.587 -45.943
5124.810 -30.548 52.816
5418.400 -33.525 112.718
5728.810 -36.597 143.766
6057.010 -41.053 133.864
6404.000 -43.974 86.429
6770.880 -47.692 -15.428
7158.770 -52.462 -143.336
7568.890 -58.474 29.508
8002.500 -68.586 165.322
8460.950 -70.353 -68.722
8945.670 -75.656 6.117
9458.160 -64.696 -39.364
10000.000 -64.147 -157.849
