# Freq(Hz) SPL(dB) Phase (degrees)
10.000 53.744 -70.149
10.570 54.632 -74.016
11.180 55.524 -78.137
11.820 56.401 -82.442
12.500 57.276 -86.997
13.210 58.132 -91.734
13.970 58.991 -96.785
14.770 59.837 -102.084
15.620 60.679 -107.696
16.510 61.503 -113.560
17.460 62.326 -119.812
18.460 63.135 -126.394
19.510 63.927 -133.315
20.630 64.713 -140.724
21.810 65.481 -148.575
23.060 66.232 -156.957
24.380 66.958 -165.900
25.780 67.653 -175.503
27.260 68.305 174.202
28.820 68.896 163.199
30.470 69.408 151.421
32.220 69.819 138.840
34.060 70.097 125.633
36.010 70.223 111.829
38.080 70.179 97.599
40.260 69.960 83.288
42.560 69.578 69.091
45.000 69.049 55.107
47.580 68.402 41.491
50.310 67.662 28.276
53.190 66.856 15.486
56.230 66.003 3.062
59.460 65.113 -9.142
62.860 64.206 -21.086
66.460 63.283 -32.915
70.270 62.351 -44.693
74.300 61.414 -56.479
78.550 60.477 -68.302
83.050 59.540 -80.266
87.810 58.605 -92.414
92.840 57.673 -104.788
98.160 56.745 -117.449
103.780 55.824 -130.434
109.730 54.908 -143.822
116.020 54.000 -157.646
122.660 53.102 -171.942
129.690 52.212 173.192
137.120 51.333 157.720
144.970 50.465 141.586
153.280 49.608 124.689
162.060 48.762 106.992
171.340 47.926 88.413
181.160 47.099 68.854
191.540 46.278 48.256
202.510 45.461 26.545
214.110 44.643 3.629
226.380 43.820 -20.575
239.350 42.987 -46.121
253.060 42.137 -73.074
267.560 41.266 -101.504
282.890 40.369 -131.446
299.090 39.444 -162.923
316.230 38.488 163.998
334.340 37.508 129.335
353.500 36.510 93.006
373.750 35.510 54.984
395.160 34.527 15.143
417.800 33.579 -26.705
441.730 32.682 -70.802
467.040 31.837 -117.494
493.800 31.031 -167.075
522.090 30.238 140.224
552.000 29.429 84.296
583.620 28.595 25.139
617.050 27.752 -37.295
652.400 26.929 -103.279
689.780 26.131 -173.310
729.290 25.309 112.161
771.080 24.377 32.963
815.250 23.275 -50.473
861.950 22.033 -137.510
911.330 20.799 132.187
963.540 19.773 37.963
1018.740 19.053 -61.789
1077.110 18.577 -168.828
1138.810 18.127 75.616
1204.050 17.453 -48.811
1273.030 16.286 179.566
1345.960 14.720 43.030
1423.070 13.213 -97.421
1504.590 12.208 115.628
1590.790 11.610 -41.647
1681.920 11.012 149.527
1778.280 10.211 -29.742
1880.150 9.368 140.902
1987.870 8.449 -60.381
2101.750 7.135 86.880
2222.150 5.565 -133.984
2349.460 4.827 -4.208
2484.060 4.713 105.250
2626.360 3.620 -164.032
2776.820 1.665 -83.205
2935.900 0.573 -12.350
3104.100 -0.018 35.240
3281.930 -1.391 63.992
3469.940 -2.715 76.688
3668.730 -4.226 69.404
3878.910 -5.287 42.907
4101.130 -6.638 -10.930
4336.070 -8.237 -82.394
4584.480 -9.541 177.417
4847.120 -11.056 53.400
5124.810 -12.731 -100.409
5418.400 -14.284 78.246
5728.810 -16.122 -134.324
6057.010 -18.092 -20.798
6404.000 -19.867 60.299
6770.880 -22.075 103.415
7158.770 -24.271 109.450
7568.890 -26.751 73.481
8002.500 -29.214 -5.302
8460.950 -32.106 -128.686
8945.670 -35.183 58.600
9458.160 -38.739 -162.928
10000.000 -42.963 -78.877
