# Freq(Hz) SPL(dB) Phase (degrees)
10.000 53.658 -70.324
10.570 54.545 -74.201
11.180 55.437 -78.333
11.820 56.315 -82.649
12.500 57.189 -87.217
13.210 58.045 -91.966
13.970 58.904 -97.030
14.770 59.750 -102.343
15.620 60.592 -107.970
16.510 61.416 -113.850
17.460 62.239 -120.118
18.460 63.047 -126.717
19.510 63.839 -133.657
20.630 64.625 -141.086
21.810 65.393 -148.957
23.060 66.144 -157.361
24.380 66.869 -166.327
25.780 67.565 -175.956
27.260 68.216 173.724
28.820 68.807 162.694
30.470 69.319 150.886
32.220 69.728 138.275
34.060 70.006 125.036
36.010 70.132 111.198
38.080 70.087 96.932
40.260 69.868 82.583
42.560 69.484 68.346
45.000 68.955 54.318
47.580 68.306 40.658
50.310 67.565 27.395
53.190 66.757 14.555
56.230 65.903 2.078
59.460 65.011 -10.182
62.860 64.102 -22.184
66.460 63.177 -34.074
70.270 62.242 -45.917
74.300 61.302 -57.772
78.550 60.363 -69.666
83.050 59.422 -81.705
87.810 58.482 -93.932
92.840 57.546 -106.387
98.160 56.613 -119.133
103.780 55.686 -132.205
109.730 54.764 -145.683
116.020 53.849 -159.600
122.660 52.943 -173.991
129.690 52.044 171.047
137.120 51.156 155.478
144.970 50.278 139.247
153.280 49.410 122.254
162.060 48.553 104.461
171.340 47.705 85.789
181.160 46.866 66.139
191.540 46.033 45.452
202.510 45.203 23.654
214.110 44.374 0.654
226.380 43.539 -23.633
239.350 42.696 -49.263
253.060 41.837 -76.303
267.560 40.958 -104.824
282.890 40.055 -134.868
299.090 39.124 -166.460
316.230 38.165 160.327
334.340 37.182 125.504
353.500 36.181 88.984
373.750 35.176 50.741
395.160 34.183 10.651
417.800 33.222 -31.468
441.730 32.307 -75.845
467.040 31.441 -122.819
493.800 30.612 -172.693
522.090 29.794 134.281
552.000 28.954 77.959
583.620 28.071 18.334
617.050 27.143 -44.566
652.400 26.196 -110.813
689.780 25.258 179.321
729.290 24.331 105.421
771.080 23.371 27.075
815.250 22.319 -55.584
861.950 21.190 -142.070
911.330 20.142 127.817
963.540 19.377 32.897
1018.740 18.866 -69.122
1077.110 18.310 -179.501
1138.810 17.413 62.571
1204.050 16.183 -61.485
1273.030 14.681 169.391
1345.960 13.128 36.051
1423.070 12.054 -102.060
1504.590 11.696 109.444
1590.790 11.205 -52.560
1681.920 10.149 136.096
1778.280 9.024 -42.890
1880.150 7.992 127.911
1987.870 6.870 -72.473
2101.750 5.499 76.965
2222.150 4.534 -141.906
2349.460 4.339 -18.232
2484.060 3.346 86.242
2626.360 1.332 -178.473
2776.820 0.272 -91.690
2935.900 -0.244 -28.392
3104.100 -1.690 17.508
3281.930 -2.995 48.089
3469.940 -4.549 59.817
3668.730 -5.471 53.714
3878.910 -6.924 20.027
4101.130 -8.589 -27.572
4336.070 -9.803 -104.855
4584.480 -11.436 156.643
4847.120 -13.091 29.249
5124.810 -14.658 -124.269
5418.400 -16.572 52.670
5728.810 -18.491 -163.131
6057.010 -20.300 -49.129
6404.000 -22.822 28.415
6770.880 -25.020 69.704
7158.770 -27.922 72.069
7568.890 -30.572 33.179
8002.500 -34.258 -49.001
8460.950 -38.025 -176.466
8945.670 -43.343 6.185
9458.160 -51.042 133.542
10000.000 -64.156 143.625
