# Freq(Hz) SPL(dB) Phase (degrees)
10.000 53.708 -70.222
10.570 54.595 -74.093
11.180 55.487 -78.219
11.820 56.365 -82.529
12.500 57.239 -87.089
13.210 58.095 -91.832
13.970 58.954 -96.888
14.770 59.801 -102.192
15.620 60.642 -107.811
16.510 61.467 -113.682
17.460 62.289 -119.940
18.460 63.098 -126.529
19.510 63.890 -133.459
20.630 64.676 -140.876
21.810 65.444 -148.735
23.060 66.195 -157.126
24.380 66.920 -166.079
25.780 67.616 -175.693
27.260 68.268 174.002
28.820 68.859 162.987
30.470 69.371 151.197
32.220 69.780 138.603
34.060 70.059 125.382
36.010 70.185 111.564
38.080 70.140 97.319
40.260 69.921 82.993
42.560 69.538 68.779
45.000 69.009 54.776
47.580 68.361 41.142
50.310 67.620 27.907
53.190 66.814 15.096
56.230 65.960 2.649
59.460 65.070 -9.578
62.860 64.161 -21.546
66.460 63.237 -33.401
70.270 62.304 -45.206
74.300 61.366 -57.021
78.550 60.428 -68.874
83.050 59.489 -80.869
87.810 58.552 -93.051
92.840 57.618 -105.458
98.160 56.688 -118.155
103.780 55.764 -131.176
109.730 54.845 -144.601
116.020 53.934 -158.465
122.660 53.032 -172.800
129.690 52.138 172.294
137.120 51.255 156.782
144.970 50.383 140.608
153.280 49.520 123.672
162.060 48.669 105.935
171.340 47.828 87.319
181.160 46.994 67.723
191.540 46.168 47.089
202.510 45.345 25.344
214.110 44.521 2.395
226.380 43.692 -21.840
239.350 42.854 -47.417
253.060 41.999 -74.402
267.560 41.124 -102.864
282.890 40.223 -132.843
299.090 39.294 -164.361
316.230 38.336 162.512
334.340 37.353 127.790
353.500 36.352 91.390
373.750 35.349 53.284
395.160 34.360 13.348
417.800 33.404 -28.604
441.730 32.497 -72.807
467.040 31.641 -119.603
493.800 30.822 -169.289
522.090 30.016 137.896
552.000 29.191 81.828
583.620 28.333 22.502
617.050 27.451 -40.098
652.400 26.572 -106.157
689.780 25.712 -176.077
729.290 24.842 109.702
771.080 23.893 30.915
815.250 22.805 -52.111
861.950 21.607 -138.777
911.330 20.463 131.182
963.540 19.581 36.765
1018.740 18.985 -64.080
1077.110 18.475 -172.828
1138.810 17.795 70.454
1204.050 16.843 -53.763
1273.030 15.493 175.846
1345.960 13.896 41.089
1423.070 12.609 -97.719
1504.590 11.995 114.715
1590.790 11.468 -45.210
1681.920 10.600 144.674
1778.280 9.606 -34.151
1880.150 8.698 137.032
1987.870 7.757 -63.945
2101.750 6.359 83.807
2222.150 4.945 -135.396
2349.460 4.578 -7.461
2484.060 4.196 99.133
2626.360 2.578 -169.030
2776.820 0.851 -84.399
2935.900 0.190 -16.099
3104.100 -0.757 30.168
3281.930 -2.086 60.024
3469.940 -3.595 71.394
3668.730 -4.976 67.037
3878.910 -5.778 36.063
4101.130 -7.761 -15.520
4336.070 -8.859 -87.640
4584.480 -10.466 172.072
4847.120 -11.942 46.555
5124.810 -13.638 -105.791
5418.400 -15.382 70.979
5728.810 -17.073 -142.085
6057.010 -19.222 -27.443
6404.000 -21.224 50.506
6770.880 -23.540 94.295
7158.770 -25.878 97.956
7568.890 -28.561 62.591
8002.500 -31.635 -17.930
8460.950 -34.832 -143.082
8945.670 -38.969 43.009
9458.160 -43.486 178.337
10000.000 -50.756 -94.505
