# Freq(Hz) SPL(dB) Phase (degrees)
10.000 52.999 -71.723
10.570 53.887 -75.679
11.180 54.778 -79.896
11.820 55.656 -84.303
12.500 56.530 -88.965
13.210 57.386 -93.814
13.970 58.244 -98.985
14.770 59.090 -104.409
15.620 59.931 -110.155
16.510 60.755 -116.159
17.460 61.577 -122.561
18.460 62.384 -129.300
19.510 63.176 -136.387
20.630 63.961 -143.973
21.810 64.728 -152.009
23.060 65.477 -160.588
24.380 66.202 -169.739
25.780 66.896 -179.564
27.260 67.546 169.909
28.820 68.135 158.660
30.470 68.644 146.621
32.220 69.052 133.764
34.060 69.327 120.267
36.010 69.450 106.155
38.080 69.402 91.599
40.260 69.179 76.944
42.560 68.792 62.384
45.000 68.258 48.015
47.580 67.604 33.993
50.310 66.857 20.347
53.190 66.043 7.103
56.230 65.182 -5.800
59.460 64.282 -18.511
62.860 63.363 -30.988
66.460 62.427 -43.381
70.270 61.480 -55.753
74.300 60.526 -68.167
78.550 59.571 -80.647
83.050 58.612 -93.303
87.810 57.652 -106.179
92.840 56.692 -119.313
98.160 55.733 -132.769
103.780 54.777 -146.582
109.730 53.821 -160.831
116.020 52.868 -175.548
122.660 51.921 169.237
129.690 50.977 153.426
137.120 50.038 136.989
144.970 49.106 119.874
153.280 48.180 101.984
162.060 47.261 83.287
171.340 46.351 63.707
181.160 45.447 43.145
191.540 44.550 21.547
202.510 43.659 -1.165
214.110 42.773 -25.086
226.380 41.888 -50.309
239.350 41.003 -76.903
253.060 40.113 -104.951
267.560 39.215 -134.550
282.890 38.306 -165.767
299.090 37.382 161.338
316.230 36.441 126.655
334.340 35.482 90.165
353.500 34.505 51.755
373.750 33.516 11.394
395.160 32.523 -31.010
417.800 31.539 -75.573
441.730 30.583 -122.433
467.040 29.672 -171.860
493.800 28.820 135.820
522.090 28.022 80.198
552.000 27.249 20.842
583.620 26.449 -42.573
617.050 25.549 -110.189
652.400 24.478 178.131
689.780 23.196 102.889
729.290 21.745 24.858
771.080 20.294 -55.576
815.250 19.079 -139.085
861.950 18.191 132.347
911.330 17.475 36.997
963.540 16.701 -65.468
1018.740 15.744 -174.443
1077.110 14.617 70.639
1138.810 13.401 -50.082
1204.050 12.105 -176.926
1273.030 10.804 50.212
1345.960 9.720 -88.751
1423.070 9.100 123.280
1504.590 8.516 -37.276
1590.790 7.326 151.474
1681.920 5.810 -26.360
1778.280 4.546 146.482
1880.150 2.994 -52.435
1987.870 1.184 101.952
2101.750 0.353 -113.177
2222.150 -0.119 12.677
2349.460 -1.292 122.653
2484.060 -2.933 -138.451
2626.360 -4.029 -51.269
2776.820 -4.899 14.139
2935.900 -6.826 64.181
3104.100 -8.209 98.053
3281.930 -9.890 117.622
3469.940 -10.746 113.713
3668.730 -12.493 84.541
3878.910 -14.506 40.689
4101.130 -16.178 -31.309
4336.070 -18.044 -122.970
4584.480 -19.896 117.359
4847.120 -21.580 -31.763
5124.810 -24.031 152.440
5418.400 -26.295 -55.187
5728.810 -28.398 65.214
6057.010 -31.352 151.429
6404.000 -34.471 -157.603
6770.880 -38.033 -145.229
7158.770 -42.009 -175.649
7568.890 -47.025 116.765
8002.500 -54.379 8.504
8460.950 -70.395 -76.424
8945.670 -58.464 140.406
9458.160 -54.504 -121.013
10000.000 -53.748 -84.232
