# Freq(Hz) SPL(dB) Phase (degrees)
10.000 52.407 -73.079
10.570 53.294 -77.113
11.180 54.185 -81.413
11.820 55.063 -85.906
12.500 55.937 -90.660
13.210 56.792 -95.606
13.970 57.651 -100.879
14.770 58.496 -106.412
15.620 59.337 -112.274
16.510 60.161 -118.399
17.460 60.983 -124.929
18.460 61.791 -131.804
19.510 62.581 -139.034
20.630 63.366 -146.772
21.810 64.133 -154.968
23.060 64.882 -163.717
24.380 65.606 -173.047
25.780 66.300 176.938
27.260 66.950 166.210
28.820 67.538 154.748
30.470 68.048 142.485
32.220 68.454 129.391
34.060 68.729 115.643
36.010 68.851 101.266
38.080 68.802 86.429
40.260 68.579 71.477
42.560 68.190 56.605
45.000 67.655 41.903
47.580 66.999 27.530
50.310 66.251 13.513
53.190 65.435 -0.122
56.230 64.571 -13.438
59.460 63.668 -26.588
62.860 62.746 -39.526
66.460 61.806 -52.406
70.270 60.855 -65.294
74.300 59.896 -78.251
78.550 58.935 -91.303
83.050 57.969 -104.562
87.810 57.001 -118.071
92.840 56.032 -131.870
98.160 55.063 -146.024
103.780 54.094 -160.565
109.730 53.124 -175.576
116.020 52.156 168.915
122.660 51.191 152.881
129.690 50.228 136.223
137.120 49.269 118.916
144.970 48.316 100.911
153.280 47.368 82.115
162.060 46.429 62.500
171.340 45.500 41.994
181.160 44.582 20.501
191.540 43.678 -2.035
202.510 42.791 -25.694
214.110 41.920 -50.582
226.380 41.068 -76.807
239.350 40.236 -104.460
253.060 39.422 -133.655
267.560 38.626 -164.527
282.890 37.844 162.811
299.090 37.072 128.255
316.230 36.305 91.643
334.340 35.538 52.914
353.500 34.763 11.912
373.750 33.976 -31.412
395.160 33.173 -77.155
417.800 32.355 -125.394
441.730 31.525 -176.171
467.040 30.699 130.404
493.800 29.897 74.222
522.090 29.151 15.069
552.000 28.485 -47.417
583.620 27.909 -113.694
617.050 27.409 175.752
652.400 26.953 100.500
689.780 26.501 20.251
729.290 26.016 -65.167
771.080 25.466 -155.954
815.250 24.829 107.870
861.950 24.096 6.233
911.330 23.277 -100.912
963.540 22.410 146.309
1018.740 21.547 27.523
1077.110 20.720 -97.983
1138.810 19.909 128.967
1204.050 19.040 -11.817
1273.030 18.084 -160.920
1345.960 17.012 41.613
1423.070 15.833 -124.278
1504.590 14.621 61.092
1590.790 13.412 -123.220
1681.920 12.168 41.939
1778.280 10.813 -163.969
1880.150 9.307 -20.720
1987.870 7.785 111.628
2101.750 6.373 -128.126
2222.150 5.063 -21.386
2349.460 3.825 71.144
2484.060 2.716 148.154
2626.360 1.639 -151.318
2776.820 0.677 -107.915
2935.900 -0.176 -83.997
3104.100 -1.134 -79.925
3281.930 -1.976 -96.426
3469.940 -2.888 -136.433
3668.730 -3.986 159.848
3878.910 -5.418 71.124
4101.130 -7.192 -42.367
4336.070 -9.081 178.067
4584.480 -11.338 11.095
4847.120 -13.780 176.271
5124.810 -16.232 -47.246
5418.400 -18.421 58.117
5728.810 -20.234 128.088
6057.010 -21.712 159.033
6404.000 -23.059 148.733
6770.880 -24.717 92.131
7158.770 -26.933 -9.627
7568.890 -29.742 -157.255
8002.500 -32.987 7.123
8460.950 -36.291 122.521
8945.670 -39.856 179.415
9458.160 -44.109 174.302
10000.000 -51.716 104.535
