# Freq(Hz) SPL(dB) Phase (degrees)
10.000 51.972 -74.135
10.570 52.860 -78.229
11.180 53.751 -82.593
11.820 54.628 -87.154
12.500 55.502 -91.980
13.210 56.358 -97.001
13.970 57.216 -102.355
14.770 58.062 -107.972
15.620 58.903 -113.924
16.510 59.727 -120.143
17.460 60.548 -126.775
18.460 61.356 -133.755
19.510 62.147 -141.097
20.630 62.932 -148.953
21.810 63.699 -157.275
23.060 64.448 -166.157
24.380 65.172 -175.628
25.780 65.865 174.208
27.260 66.515 163.321
28.820 67.103 151.693
30.470 67.613 139.254
32.220 68.019 125.971
34.060 68.294 112.026
36.010 68.416 97.439
38.080 68.367 82.378
40.260 68.143 67.191
42.560 67.754 52.068
45.000 67.218 37.101
47.580 66.562 22.446
50.310 65.813 8.129
53.190 64.996 -5.824
56.230 64.132 -19.476
59.460 63.228 -32.987
62.860 62.304 -46.306
66.460 61.363 -59.592
70.270 60.410 -72.912
74.300 59.448 -86.330
78.550 58.484 -99.872
83.050 57.514 -113.654
87.810 56.542 -127.722
92.840 55.567 -142.119
98.160 54.590 -156.910
103.780 53.611 -172.133
109.730 52.630 172.126
116.020 51.648 155.837
122.660 50.666 138.970
129.690 49.681 121.419
137.120 48.695 103.159
144.970 47.708 84.139
153.280 46.719 64.261
162.060 45.730 43.499
171.340 44.740 21.781
181.160 43.748 -0.987
191.540 42.755 -24.852
202.510 41.762 -49.884
214.110 40.767 -76.176
226.380 39.770 -103.815
239.350 38.772 -132.870
253.060 37.773 -163.428
267.560 36.772 164.402
282.890 35.771 130.534
299.090 34.769 94.879
316.230 33.767 57.278
334.340 32.768 17.658
353.500 31.768 -24.171
373.750 30.768 -68.312
395.160 29.763 -114.928
417.800 28.746 -164.167
441.730 27.712 143.878
467.040 26.655 89.079
493.800 25.581 31.381
522.090 24.502 -29.314
552.000 23.441 -93.201
583.620 22.413 -160.577
617.050 21.418 128.196
652.400 20.440 52.819
689.780 19.465 -26.864
729.290 18.508 -110.949
771.080 17.605 160.198
815.250 16.778 66.022
861.950 15.991 -34.242
911.330 15.151 -140.996
963.540 14.184 105.911
1018.740 13.097 -13.126
1077.110 11.995 -138.006
1138.810 11.009 90.885
1204.050 10.249 -49.048
1273.030 9.469 161.481
1345.960 8.406 2.289
1423.070 6.964 -164.822
1504.590 5.496 21.806
1590.790 4.539 -160.401
1681.920 3.921 3.403
1778.280 2.892 152.282
1880.150 1.092 -69.831
1987.870 -0.889 60.883
2101.750 -2.108 179.821
2222.150 -3.253 -80.157
2349.460 -5.236 4.402
2484.060 -7.468 78.701
2626.360 -9.173 137.106
2776.820 -11.291 177.316
2935.900 -13.135 -155.575
3104.100 -14.617 -153.335
3281.930 -17.043 -164.987
3469.940 -17.297 160.715
3668.730 -19.210 94.733
3878.910 -20.292 14.424
4101.130 -21.657 -103.643
4336.070 -23.367 116.462
4584.480 -25.639 -53.833
4847.120 -27.856 104.222
5124.810 -30.660 -123.840
5418.400 -34.890 -27.282
5728.810 -37.032 37.964
6057.010 -40.481 75.995
6404.000 -43.204 62.160
6770.880 -45.958 3.263
7158.770 -51.123 -91.168
7568.890 -55.747 122.289
8002.500 -60.951 -47.249
8460.950 -65.802 128.511
8945.670 -63.585 -111.428
9458.160 -61.421 -129.168
10000.000 -61.439 161.672
