# Freq(Hz) SPL(dB) Phase (degrees)
10.000 51.680 -74.873
10.570 52.568 -79.009
11.180 53.459 -83.419
11.820 54.336 -88.027
12.500 55.210 -92.903
13.210 56.066 -97.976
13.970 56.924 -103.386
14.770 57.770 -109.063
15.620 58.611 -115.078
16.510 59.434 -121.363
17.460 60.256 -128.064
18.460 61.064 -135.119
19.510 61.855 -142.538
20.630 62.639 -150.477
21.810 63.406 -158.886
23.060 64.155 -167.860
24.380 64.879 -177.429
25.780 65.573 172.304
27.260 66.222 161.307
28.820 66.810 149.564
30.470 67.319 137.002
32.220 67.726 123.591
34.060 68.000 109.509
36.010 68.122 94.778
38.080 68.072 79.564
40.260 67.848 64.215
42.560 67.459 48.922
45.000 66.922 33.774
47.580 66.266 18.928
50.310 65.516 4.410
53.190 64.699 -9.757
56.230 63.833 -23.634
59.460 62.928 -37.384
62.860 62.003 -50.954
66.460 61.061 -64.506
70.270 60.106 -78.108
74.300 59.142 -91.823
78.550 58.176 -105.678
83.050 57.203 -119.792
87.810 56.227 -134.209
92.840 55.249 -148.972
98.160 54.267 -164.151
103.780 53.284 -179.780
109.730 52.297 164.053
116.020 51.308 147.317
122.660 50.318 129.983
129.690 49.324 111.947
137.120 48.327 93.183
144.970 47.329 73.643
153.280 46.327 53.228
162.060 45.324 31.919
171.340 44.319 9.646
181.160 43.313 -13.681
191.540 42.305 -38.106
202.510 41.299 -63.691
214.110 40.295 -90.527
226.380 39.294 -118.699
239.350 38.300 -148.275
253.060 37.315 -179.345
267.560 36.342 147.970
282.890 35.386 113.571
299.090 34.450 77.347
316.230 33.537 39.113
334.340 32.650 -1.234
353.500 31.789 -43.915
373.750 30.954 -89.063
395.160 30.140 -136.877
417.800 29.344 172.455
441.730 28.558 118.781
467.040 27.778 61.897
493.800 26.999 1.653
522.090 26.218 -62.126
552.000 25.435 -129.655
583.620 24.642 158.834
617.050 23.825 83.107
652.400 22.963 2.996
689.780 22.044 -81.530
729.290 21.086 -170.414
771.080 20.142 96.144
815.250 19.269 -2.242
861.950 18.486 -106.268
911.330 17.784 143.436
963.540 17.145 26.341
1018.740 16.552 -98.185
1077.110 15.938 129.124
1138.810 15.186 -11.882
1204.050 14.235 -161.072
1273.030 13.138 42.007
1345.960 11.973 -123.016
1423.070 10.792 63.342
1504.590 9.653 -119.551
1590.790 8.605 47.293
1681.920 7.625 -157.332
1778.280 6.619 -14.335
1880.150 5.504 115.977
1987.870 4.248 -126.561
2101.750 2.932 -22.035
2222.150 1.648 68.472
2349.460 0.409 143.509
2484.060 -0.929 -157.979
2626.360 -2.375 -115.440
2776.820 -3.634 -89.575
2935.900 -4.566 -84.014
3104.100 -5.468 -101.400
3281.930 -6.745 -138.578
3469.940 -7.824 160.888
3668.730 -8.876 74.107
3878.910 -10.346 -38.719
4101.130 -11.906 -177.046
4336.070 -13.497 15.368
4584.480 -15.443 177.406
4847.120 -17.528 -50.962
5124.810 -19.798 48.184
5418.400 -22.035 113.609
5728.810 -24.220 140.660
6057.010 -26.491 127.969
6404.000 -28.943 72.079
6770.880 -31.827 -29.683
7158.770 -35.390 -179.723
7568.890 -40.158 -18.610
8002.500 -46.755 88.445
8460.950 -60.647 137.696
8945.670 -57.617 -26.765
9458.160 -50.799 -95.857
10000.000 -49.053 128.730
