# Freq(Hz) SPL(dB) Phase (degrees)
10.000 52.097 -73.825
10.570 52.985 -77.901
11.180 53.876 -82.247
11.820 54.753 -86.788
12.500 55.627 -91.593
13.210 56.483 -96.592
13.970 57.341 -101.922
14.770 58.187 -107.515
15.620 59.028 -113.441
16.510 59.851 -119.632
17.460 60.673 -126.234
18.460 61.481 -133.184
19.510 62.272 -140.492
20.630 63.057 -148.314
21.810 63.823 -156.599
23.060 64.572 -165.442
24.380 65.296 -174.872
25.780 65.990 175.008
27.260 66.639 164.167
28.820 67.228 152.587
30.470 67.737 140.199
32.220 68.143 126.972
34.060 68.418 113.084
36.010 68.540 98.558
38.080 68.491 83.562
40.260 68.267 68.443
42.560 67.878 53.393
45.000 67.342 38.503
47.580 66.686 23.929
50.310 65.936 9.699
53.190 65.119 -4.163
56.230 64.254 -17.718
59.460 63.351 -31.126
62.860 62.427 -44.336
66.460 61.485 -57.506
70.270 60.532 -70.704
74.300 59.570 -83.991
78.550 58.606 -97.395
83.050 57.636 -111.030
87.810 56.664 -124.942
92.840 55.689 -139.173
98.160 54.712 -153.788
103.780 53.735 -168.824
109.730 52.754 175.634
116.020 51.773 159.556
122.660 50.792 142.912
129.690 49.809 125.599
137.120 48.826 107.591
144.970 47.842 88.837
153.280 46.857 69.240
162.060 45.873 48.775
171.340 44.889 27.370
181.160 43.904 4.931
191.540 42.920 -18.591
202.510 41.937 -43.265
214.110 40.954 -69.183
226.380 39.970 -96.437
239.350 38.987 -125.095
253.060 38.005 -155.246
267.560 37.021 173.000
282.890 36.038 139.554
299.090 35.055 104.327
316.230 34.071 67.161
334.340 33.087 27.985
353.500 32.100 -13.384
373.750 31.109 -57.040
395.160 30.108 -103.128
417.800 29.092 -151.777
441.730 28.057 156.940
467.040 27.002 102.912
493.800 25.937 46.086
522.090 24.881 -13.654
552.000 23.863 -76.540
583.620 22.899 -142.926
617.050 21.990 146.760
652.400 21.114 72.132
689.780 20.244 -7.069
729.290 19.364 -90.993
771.080 18.470 -179.903
815.250 17.556 85.964
861.950 16.593 -13.692
911.330 15.553 -118.876
963.540 14.475 130.613
1018.740 13.489 14.518
1077.110 12.701 -108.536
1138.810 12.012 119.992
1204.050 11.156 -21.376
1273.030 9.927 -170.980
1345.960 8.308 32.749
1423.070 6.680 -128.536
1504.590 5.709 62.518
1590.790 5.164 -120.483
1681.920 4.167 42.001
1778.280 2.409 -165.950
1880.150 0.387 -20.866
1987.870 -1.112 114.009
2101.750 -2.512 -126.942
2222.150 -4.315 -20.867
2349.460 -5.981 72.139
2484.060 -7.877 148.461
2626.360 -10.209 -145.937
2776.820 -11.164 -94.765
2935.900 -12.300 -70.632
3104.100 -14.310 -58.617
3281.930 -14.690 -70.515
3469.940 -16.226 -106.385
3668.730 -17.187 -164.730
3878.910 -19.100 112.097
4101.130 -20.514 2.409
4336.070 -22.882 -133.558
4584.480 -25.438 60.741
4847.120 -28.015 -127.248
5124.810 -32.116 10.685
5418.400 -34.349 121.920
5728.810 -36.738 -157.774
6057.010 -39.203 -120.408
6404.000 -41.520 -127.304
6770.880 -45.466 -169.936
7158.770 -50.141 93.094
7568.890 -57.037 -21.466
8002.500 -61.782 170.294
8460.950 -65.627 -1.715
8945.670 -64.947 114.471
9458.160 -60.801 106.240
10000.000 -58.886 65.466
