# Freq(Hz) SPL(dB) Phase (degrees)
10.000 51.418 -75.563
10.570 52.305 -79.739
11.180 53.197 -84.190
11.820 54.074 -88.843
12.500 54.948 -93.767
13.210 55.804 -98.888
13.970 56.663 -104.351
14.770 57.509 -110.083
15.620 58.350 -116.157
16.510 59.174 -122.504
17.460 59.996 -129.271
18.460 60.804 -136.395
19.510 61.595 -143.887
20.630 62.381 -151.904
21.810 63.148 -160.395
23.060 63.898 -169.456
24.380 64.622 -179.117
25.780 65.317 170.518
27.260 65.967 159.418
28.820 66.556 147.566
30.470 67.067 134.889
32.220 67.474 121.354
34.060 67.750 107.143
36.010 67.874 92.274
38.080 67.826 76.914
40.260 67.604 61.411
42.560 67.217 45.954
45.000 66.683 30.632
47.580 66.029 15.601
50.310 65.282 0.886
53.190 64.468 -13.488
56.230 63.607 -27.587
59.460 62.706 -41.572
62.860 61.786 -55.394
66.460 60.849 -69.213
70.270 59.900 -83.100
74.300 58.943 -97.119
78.550 57.983 -111.299
83.050 57.019 -125.759
87.810 56.051 -140.548
92.840 55.082 -155.711
98.160 54.111 -171.318
103.780 53.140 172.593
109.730 52.165 155.929
116.020 51.189 138.657
122.660 50.213 120.745
129.690 49.234 102.080
137.120 48.253 82.635
144.970 47.271 62.352
153.280 46.286 41.128
162.060 45.298 18.935
171.340 44.308 -4.304
181.160 43.313 -28.692
191.540 42.314 -54.277
202.510 41.310 -81.135
214.110 40.300 -109.360
226.380 39.283 -139.048
239.350 38.256 -170.264
253.060 37.221 156.902
267.560 36.174 122.342
282.890 35.116 85.976
299.090 34.047 47.726
316.230 32.966 7.442
334.340 31.877 -34.930
353.500 30.781 -79.569
373.750 29.681 -126.570
395.160 28.578 -176.108
417.800 27.474 131.639
441.730 26.363 76.520
467.040 25.241 18.343
493.800 24.103 -42.992
522.090 22.955 -107.568
552.000 21.819 -175.515
583.620 20.732 112.881
617.050 19.716 37.066
652.400 18.746 -43.649
689.780 17.741 -129.757
729.290 16.606 138.692
771.080 15.266 41.936
815.250 13.701 -59.365
861.950 11.975 -164.466
911.330 10.293 87.208
963.540 9.004 -24.991
1018.740 8.358 -144.074
1077.110 8.141 86.365
1138.810 7.869 -54.856
1204.050 7.176 153.798
1273.030 6.018 -6.307
1345.960 4.457 -173.712
1423.070 2.722 12.758
1504.590 1.294 -166.984
1590.790 0.613 3.236
1681.920 0.439 158.490
1778.280 0.133 -63.134
1880.150 -0.841 60.157
1987.870 -2.590 172.018
2101.750 -4.490 -84.070
2222.150 -5.462 7.368
2349.460 -6.017 77.500
2484.060 -7.236 127.401
2626.360 -9.176 161.512
2776.820 -11.286 -178.251
2935.900 -12.824 -174.657
3104.100 -13.995 162.379
3281.930 -16.553 115.007
3469.940 -19.249 60.235
3668.730 -19.738 -26.803
3878.910 -22.140 -144.600
4101.130 -24.269 83.397
4336.070 -24.813 -86.999
4584.480 -27.373 67.865
4847.120 -29.018 -162.616
5124.810 -31.203 -75.130
5418.400 -34.325 -11.796
5728.810 -37.420 1.323
6057.010 -41.494 -5.082
6404.000 -44.880 -70.528
6770.880 -49.009 -154.957
7158.770 -52.636 49.348
7568.890 -56.361 -156.062
8002.500 -67.403 -56.774
8460.950 -70.337 66.521
8945.670 -71.289 90.194
9458.160 -65.068 102.213
10000.000 -68.842 -53.115
