# Freq(Hz) SPL(dB) Phase (degrees)
10.000 53.767 -70.102
10.570 54.655 -73.966
11.180 55.547 -78.084
11.820 56.425 -82.387
12.500 57.299 -86.939
13.210 58.156 -91.673
13.970 59.014 -96.720
14.770 59.861 -102.015
15.620 60.703 -107.623
16.510 61.527 -113.483
17.460 62.350 -119.730
18.460 63.159 -126.307
19.510 63.951 -133.224
20.630 64.737 -140.628
21.810 65.506 -148.473
23.060 66.257 -156.849
24.380 66.983 -165.786
25.780 67.679 -175.383
27.260 68.331 174.330
28.820 68.922 163.334
30.470 69.435 151.563
32.220 69.845 138.991
34.060 70.124 125.792
36.010 70.251 111.997
38.080 70.207 97.778
40.260 69.989 83.477
42.560 69.607 69.291
45.000 69.079 55.318
47.580 68.432 41.714
50.310 67.693 28.512
53.190 66.888 15.735
56.230 66.037 3.325
59.460 65.148 -8.864
62.860 64.242 -20.791
66.460 63.321 -32.603
70.270 62.391 -44.363
74.300 61.456 -56.131
78.550 60.522 -67.934
83.050 59.588 -79.878
87.810 58.655 -92.005
92.840 57.727 -104.356
98.160 56.804 -116.994
103.780 55.887 -129.955
109.730 54.976 -143.318
116.020 54.073 -157.118
122.660 53.182 -171.389
129.690 52.299 173.769
137.120 51.428 158.321
144.970 50.570 142.209
153.280 49.723 125.333
162.060 48.888 107.653
171.340 48.065 89.088
181.160 47.251 69.538
191.540 46.445 48.943
202.510 45.644 27.227
214.110 44.844 4.298
226.380 44.039 -19.928
239.350 43.225 -45.508
253.060 42.396 -72.505
267.560 41.546 -100.992
282.890 40.670 -131.002
299.090 39.765 -162.556
316.230 38.831 164.280
334.340 37.873 129.529
353.500 36.897 93.110
373.750 35.922 55.000
395.160 34.966 15.071
417.800 34.051 -26.875
441.730 33.192 -71.096
467.040 32.391 -117.955
493.800 31.632 -167.765
522.090 30.882 139.247
552.000 30.110 83.002
583.620 29.308 23.557
617.050 28.502 -39.100
652.400 27.738 -105.277
689.780 27.027 -175.594
729.290 26.311 109.388
771.080 25.498 29.436
815.250 24.522 -55.143
861.950 23.379 -143.963
911.330 22.114 123.237
963.540 20.793 26.621
1018.740 19.550 -73.565
1077.110 18.685 -177.972
1138.810 18.359 70.122
1204.050 18.191 -52.300
1273.030 17.681 175.627
1345.960 16.746 35.691
1423.070 15.431 -111.161
1504.590 13.802 96.482
1590.790 12.364 -60.294
1681.920 11.634 134.359
1778.280 11.199 -43.944
1880.150 10.577 125.016
1987.870 9.622 -76.947
2101.750 8.669 71.141
2222.150 7.887 -153.744
2349.460 6.871 -33.455
2484.060 5.306 75.204
2626.360 4.118 174.491
2776.820 3.753 -104.476
2935.900 2.896 -45.464
3104.100 1.087 -0.496
3281.930 -0.314 32.093
3469.940 -1.235 42.724
3668.730 -2.542 32.567
3878.910 -3.742 1.836
4101.130 -5.399 -51.657
4336.070 -6.627 -124.813
4584.480 -7.863 131.615
4847.120 -9.563 6.146
5124.810 -10.902 -149.719
5418.400 -12.602 26.860
5728.810 -14.180 171.427
6057.010 -15.850 -75.485
6404.000 -17.579 3.533
6770.880 -19.165 44.447
7158.770 -20.822 48.051
7568.890 -22.568 9.026
8002.500 -24.347 -72.209
8460.950 -26.101 159.911
8945.670 -28.035 -16.293
9458.160 -30.037 115.764
10000.000 -32.146 -165.323
