# Freq(Hz) SPL(dB) Phase (degrees)
10.000 51.472 -75.417
10.570 52.359 -79.584
11.180 53.251 -84.027
11.820 54.128 -88.670
12.500 55.002 -93.583
13.210 55.858 -98.695
13.970 56.716 -104.146
14.770 57.562 -109.867
15.620 58.403 -115.928
16.510 59.227 -122.261
17.460 60.049 -129.014
18.460 60.856 -136.124
19.510 61.647 -143.600
20.630 62.432 -151.600
21.810 63.199 -160.074
23.060 63.948 -169.116
24.380 64.672 -178.757
25.780 65.366 170.899
27.260 66.016 159.821
28.820 66.604 147.992
30.470 67.114 135.340
32.220 67.520 121.832
34.060 67.795 107.649
36.010 67.917 92.811
38.080 67.868 77.483
40.260 67.644 62.013
42.560 67.256 46.593
45.000 66.720 31.310
47.580 66.064 16.320
50.310 65.315 1.649
53.190 64.499 -12.678
56.230 63.634 -26.726
59.460 62.730 -40.657
62.860 61.806 -54.420
66.460 60.865 -68.177
70.270 59.911 -81.996
74.300 58.949 -95.943
78.550 57.984 -110.043
83.050 57.013 -124.417
87.810 56.039 -139.113
92.840 55.062 -154.173
98.160 54.082 -169.667
103.780 53.100 174.367
109.730 52.115 157.839
116.020 51.127 140.719
122.660 50.138 122.975
129.690 49.144 104.499
137.120 48.148 85.264
144.970 47.149 65.220
153.280 46.145 44.266
162.060 45.138 22.380
171.340 44.127 -0.511
181.160 43.112 -24.499
191.540 42.093 -49.628
202.510 41.070 -75.964
214.110 40.044 -103.594
226.380 39.016 -132.605
239.350 37.986 -163.056
253.060 36.956 164.967
267.560 35.929 131.357
282.890 34.908 96.027
299.090 33.898 58.885
316.230 32.902 19.765
334.340 31.925 -21.417
353.500 30.972 -64.871
373.750 30.046 -110.724
395.160 29.150 -159.178
417.800 28.284 149.561
441.730 27.445 95.312
467.040 26.633 37.837
493.800 25.844 -23.055
522.090 25.079 -87.586
552.000 24.336 -156.026
583.620 23.607 131.322
617.050 22.873 54.134
652.400 22.100 -27.860
689.780 21.252 -114.766
729.290 20.313 153.486
771.080 19.301 56.864
815.250 18.259 -44.728
861.950 17.218 -151.697
911.330 16.193 95.529
963.540 15.198 -23.405
1018.740 14.267 -148.943
1077.110 13.426 78.118
1138.810 12.631 -63.064
1204.050 11.825 147.000
1273.030 10.942 -11.964
1345.960 9.977 179.752
1423.070 8.910 1.672
1504.590 7.679 173.442
1590.790 6.244 -24.600
1681.920 4.770 127.852
1778.280 3.442 -90.420
1880.150 2.329 38.843
1987.870 1.330 153.446
2101.750 0.180 -107.212
2222.150 -1.224 -22.679
2349.460 -2.805 47.781
2484.060 -4.243 103.253
2626.360 -5.509 141.025
2776.820 -6.755 159.500
2935.900 -8.206 158.710
3104.100 -9.343 141.177
3281.930 -10.306 96.703
3469.940 -11.191 26.972
3668.730 -12.620 -68.144
3878.910 -14.335 172.746
4101.130 -15.923 27.005
4336.070 -17.677 -149.035
4584.480 -19.738 5.241
4847.120 -21.920 128.105
5124.810 -24.358 -142.664
5418.400 -26.760 -86.314
5728.810 -28.938 -69.267
6057.010 -31.338 -93.445
6404.000 -33.932 -160.447
6770.880 -37.087 84.027
7158.770 -40.823 -77.593
7568.890 -46.195 66.715
8002.500 -53.648 164.874
8460.950 -74.928 -160.635
8945.670 -58.583 5.413
9458.160 -54.514 -79.901
10000.000 -53.133 130.023
