# Freq(Hz) SPL(dB) Phase (degrees)
10.000 53.031 -71.656
10.570 53.918 -75.608
11.180 54.810 -79.821
11.820 55.687 -84.223
12.500 56.562 -88.881
13.210 57.417 -93.725
13.970 58.276 -98.890
14.770 59.122 -104.309
15.620 59.963 -110.050
16.510 60.787 -116.048
17.460 61.610 -122.443
18.460 62.418 -129.175
19.510 63.209 -136.255
20.630 63.995 -143.833
21.810 64.762 -151.861
23.060 65.512 -160.431
24.380 66.237 -169.573
25.780 66.932 -179.387
27.260 67.583 170.096
28.820 68.172 158.857
30.470 68.683 146.831
32.220 69.091 133.987
34.060 69.368 120.503
36.010 69.492 106.406
38.080 69.445 91.865
40.260 69.224 77.227
42.560 68.838 62.685
45.000 68.306 48.334
47.580 67.655 34.333
50.310 66.910 20.710
53.190 66.099 7.490
56.230 65.241 -5.387
59.460 64.344 -18.071
62.860 63.429 -30.518
66.460 62.498 -42.877
70.270 61.556 -55.213
74.300 60.608 -67.587
78.550 59.660 -80.025
83.050 58.709 -92.634
87.810 57.757 -105.457
92.840 56.808 -118.535
98.160 55.861 -131.929
103.780 54.918 -145.673
109.730 53.978 -159.848
116.020 53.044 -174.484
122.660 52.118 170.390
129.690 51.199 154.674
137.120 50.290 138.339
144.970 49.392 121.330
153.280 48.506 103.550
162.060 47.635 84.962
171.340 46.779 65.487
181.160 45.939 45.019
191.540 45.116 23.497
202.510 44.309 0.832
214.110 43.517 -23.082
226.380 42.739 -48.351
239.350 41.970 -75.059
253.060 41.207 -103.302
267.560 40.445 -133.188
282.890 39.679 -164.797
299.090 38.902 161.810
316.230 38.110 126.524
334.340 37.301 89.333
353.500 36.473 50.140
373.750 35.631 8.939
395.160 34.786 -34.339
417.800 33.956 -79.786
441.730 33.166 -127.528
467.040 32.444 -177.851
493.800 31.813 128.873
522.090 31.272 72.153
552.000 30.793 11.488
583.620 30.317 -53.476
617.050 29.784 -122.893
652.400 29.141 163.264
689.780 28.362 85.148
729.290 27.450 2.990
771.080 26.445 -83.132
815.250 25.417 -173.259
861.950 24.436 92.120
911.330 23.530 -7.738
963.540 22.672 -113.515
1018.740 21.809 134.363
1077.110 20.898 15.693
1138.810 19.931 -109.489
1204.050 18.973 118.657
1273.030 18.079 -20.673
1345.960 17.212 -168.398
1423.070 16.301 35.139
1504.590 15.363 -130.306
1590.790 14.393 54.412
1681.920 13.305 -131.170
1778.280 12.051 32.827
1880.150 10.640 -173.496
1987.870 9.132 -30.416
2101.750 7.610 101.987
2222.150 6.279 -137.307
2349.460 5.149 -30.085
2484.060 4.323 62.553
2626.360 3.760 137.336
2776.820 3.029 -166.767
2935.900 2.046 -129.678
3104.100 0.604 -110.851
3281.930 -1.065 -109.942
3469.940 -3.169 -128.022
3668.730 -5.129 -162.510
3878.910 -6.683 141.521
4101.130 -7.660 61.340
4336.070 -8.504 -47.277
4584.480 -9.430 175.799
4847.120 -10.305 9.583
5124.810 -11.444 170.783
5418.400 -13.110 -59.936
5728.810 -15.013 38.926
6057.010 -16.709 104.865
6404.000 -18.053 132.035
6770.880 -19.671 117.375
7158.770 -21.395 62.868
7568.890 -22.991 -36.217
8002.500 -24.621 177.084
8460.950 -26.491 -19.215
8945.670 -28.395 91.771
9458.160 -30.413 148.934
10000.000 -32.495 147.796
