# Freq(Hz) SPL(dB) Phase (degrees)
10.000 51.377 -75.670
10.570 52.264 -79.851
11.180 53.156 -84.309
11.820 54.033 -88.968
12.500 54.907 -93.900
13.210 55.763 -99.029
13.970 56.621 -104.500
14.770 57.467 -110.240
15.620 58.308 -116.323
16.510 59.132 -122.679
17.460 59.954 -129.456
18.460 60.762 -136.591
19.510 61.553 -144.094
20.630 62.338 -152.123
21.810 63.105 -160.626
23.060 63.854 -169.700
24.380 64.578 -179.375
25.780 65.272 170.246
27.260 65.922 159.131
28.820 66.511 147.262
30.470 67.020 134.568
32.220 67.427 121.015
34.060 67.703 106.785
36.010 67.825 91.897
38.080 67.776 76.515
40.260 67.553 60.990
42.560 67.164 45.511
45.000 66.629 30.165
47.580 65.974 15.108
50.310 65.225 0.367
53.190 64.409 -14.035
56.230 63.545 -28.163
59.460 62.642 -42.178
62.860 61.719 -56.031
66.460 60.779 -69.882
70.270 59.826 -83.802
74.300 58.865 -97.856
78.550 57.901 -112.070
83.050 56.932 -126.565
87.810 55.959 -141.390
92.840 54.983 -156.587
98.160 54.005 -172.228
103.780 53.025 171.650
109.730 52.042 154.955
116.020 51.056 137.656
122.660 50.069 119.721
129.690 49.077 101.040
137.120 48.083 81.587
144.970 47.086 61.308
153.280 46.084 40.101
162.060 45.079 17.943
171.340 44.069 -5.239
181.160 43.055 -29.542
191.540 42.035 -55.010
202.510 41.011 -81.709
214.110 39.982 -109.730
226.380 38.947 -139.159
239.350 37.909 -170.057
253.060 36.867 157.493
267.560 35.823 123.384
282.890 34.781 87.534
299.090 33.742 49.860
316.230 32.711 10.201
334.340 31.694 -31.514
353.500 30.694 -75.481
373.750 29.717 -121.817
395.160 28.767 -170.715
417.800 27.846 137.625
441.730 26.957 83.022
467.040 26.100 25.234
493.800 25.276 -35.941
522.090 24.487 -100.735
552.000 23.736 -169.438
583.620 23.020 117.612
617.050 22.320 40.040
652.400 21.602 -42.491
689.780 20.824 -130.162
729.290 19.958 137.050
771.080 19.007 39.102
815.250 17.999 -64.066
861.950 16.959 -172.809
911.330 15.892 72.490
963.540 14.797 -48.459
1018.740 13.688 -175.910
1077.110 12.601 49.727
1138.810 11.562 -92.115
1204.050 10.594 117.963
1273.030 9.673 -40.959
1345.960 8.768 150.501
1423.070 7.842 -28.347
1504.590 6.808 141.747
1590.790 5.519 -59.190
1681.920 4.007 89.660
1778.280 2.426 -131.886
1880.150 0.939 -4.442
1987.870 -0.283 109.993
2101.750 -1.361 -150.967
2222.150 -2.524 -68.239
2349.460 -3.953 -1.841
2484.060 -5.648 49.287
2626.360 -7.306 85.268
2776.820 -8.563 103.814
2935.900 -9.588 100.042
3104.100 -11.071 76.320
3281.930 -12.282 27.454
3469.940 -13.386 -41.979
3668.730 -14.407 -139.274
3878.910 -15.910 94.923
4101.130 -17.984 -56.677
4336.070 -20.000 125.408
4584.480 -21.867 -84.538
4847.120 -24.257 32.558
5124.810 -26.704 118.346
5418.400 -29.174 167.755
5728.810 -31.779 -179.384
6057.010 -33.828 152.015
6404.000 -36.714 74.903
6770.880 -39.765 -44.634
7158.770 -43.784 146.660
7568.890 -49.096 -72.637
8002.500 -56.457 16.859
8460.950 -83.278 70.248
8945.670 -61.327 -160.181
9458.160 -58.076 104.385
10000.000 -56.791 -50.429
