# Freq(Hz) SPL(dB) Phase (degrees)
10.000 51.133 -76.331
10.570 52.021 -80.551
11.180 52.912 -85.049
11.820 53.790 -89.751
12.500 54.664 -94.727
13.210 55.520 -99.903
13.970 56.378 -105.425
14.770 57.224 -111.218
15.620 58.066 -117.357
16.510 58.890 -123.772
17.460 59.712 -130.612
18.460 60.520 -137.813
19.510 61.311 -145.386
20.630 62.097 -153.489
21.810 62.864 -162.071
23.060 63.614 -171.229
24.380 64.339 179.009
25.780 65.033 168.536
27.260 65.684 157.323
28.820 66.273 145.350
30.470 66.783 132.546
32.220 67.191 118.877
34.060 67.467 104.524
36.010 67.591 89.505
38.080 67.543 73.985
40.260 67.321 58.313
42.560 66.934 42.679
45.000 66.401 27.169
47.580 65.748 11.939
50.310 65.001 -2.987
53.190 64.187 -17.584
56.230 63.326 -31.919
59.460 62.426 -46.154
62.860 61.506 -60.239
66.460 60.569 -74.337
70.270 59.620 -88.520
74.300 58.664 -102.853
78.550 57.705 -117.363
83.050 56.741 -132.173
87.810 55.774 -147.333
92.840 54.805 -162.887
98.160 53.834 -178.909
103.780 52.862 164.564
109.730 51.888 147.436
116.020 50.911 129.674
122.660 49.935 111.245
129.690 48.955 92.035
137.120 47.973 72.013
144.970 46.989 51.125
153.280 46.001 29.263
162.060 45.011 6.399
171.340 44.017 -17.543
181.160 43.019 -42.668
191.540 42.016 -69.023
202.510 41.008 -96.684
214.110 39.993 -125.746
226.380 38.972 -156.305
239.350 37.943 171.574
253.060 36.906 137.799
267.560 35.860 102.259
282.890 34.806 64.871
299.090 33.744 25.553
316.230 32.674 -15.850
334.340 31.600 -59.395
353.500 30.522 -105.260
373.750 29.445 -153.533
395.160 28.371 155.626
417.800 27.304 102.049
441.730 26.247 45.597
467.040 25.203 -13.940
493.800 24.177 -76.712
522.090 23.179 -142.893
552.000 22.223 147.291
583.620 21.331 73.544
617.050 20.516 -4.564
652.400 19.770 -87.553
689.780 19.063 -175.881
729.290 18.349 90.210
771.080 17.604 -9.469
815.250 16.829 -115.006
861.950 16.038 133.257
911.330 15.230 14.883
963.540 14.398 -110.593
1018.740 13.512 116.309
1077.110 12.512 -24.886
1138.810 11.318 -174.215
1204.050 9.929 28.800
1273.030 8.433 -136.022
1345.960 6.899 50.777
1423.070 5.346 -131.369
1504.590 3.835 37.174
1590.790 2.449 -164.492
1681.920 1.245 -17.652
1778.280 0.192 116.167
1880.150 -0.812 -124.307
1987.870 -1.941 -19.938
2101.750 -3.309 69.352
2222.150 -5.002 143.547
2349.460 -6.990 -156.038
2484.060 -8.779 -109.462
2626.360 -10.118 -80.554
2776.820 -11.147 -72.580
2935.900 -12.249 -88.274
3104.100 -13.709 -128.144
3281.930 -16.083 177.256
3469.940 -17.760 101.296
3668.730 -18.423 -2.432
3878.910 -19.152 -139.551
4101.130 -20.749 51.998
4336.070 -23.182 -143.834
4584.480 -25.805 -5.923
4847.120 -27.490 98.150
5124.810 -29.827 163.820
5418.400 -32.789 -164.376
5728.810 -35.245 -168.610
6057.010 -37.544 140.771
6404.000 -41.085 44.971
6770.880 -43.679 -91.593
7158.770 -46.901 73.920
7568.890 -52.545 -171.755
8002.500 -60.345 -106.500
8460.950 -76.053 -51.592
8945.670 -65.827 13.723
9458.160 -62.515 -110.580
10000.000 -59.200 58.772
