# Freq(Hz) SPL(dB) Phase (degrees)
10.000 53.603 -70.438
10.570 54.491 -74.321
11.180 55.383 -78.460
11.820 56.260 -82.783
12.500 57.135 -87.358
13.210 57.991 -92.116
13.970 58.850 -97.189
14.770 59.696 -102.510
15.620 60.538 -108.147
16.510 61.362 -114.037
17.460 62.185 -120.316
18.460 62.994 -126.927
19.510 63.786 -133.879
20.630 64.572 -141.320
21.810 65.340 -149.204
23.060 66.091 -157.622
24.380 66.817 -166.603
25.780 67.513 -176.247
27.260 68.165 173.416
28.820 68.756 162.368
30.470 69.268 150.542
32.220 69.678 137.911
34.060 69.957 124.651
36.010 70.083 110.791
38.080 70.039 96.503
40.260 69.821 82.130
42.560 69.438 67.867
45.000 68.910 53.813
47.580 68.262 40.125
50.310 67.522 26.832
53.190 66.717 13.961
56.230 65.864 1.451
59.460 64.975 -10.843
62.860 64.067 -22.881
66.460 63.145 -34.809
70.270 62.213 -46.691
74.300 61.276 -58.587
78.550 60.341 -70.524
83.050 59.404 -82.607
87.810 58.469 -94.880
92.840 57.538 -107.382
98.160 56.612 -120.177
103.780 55.692 -133.300
109.730 54.778 -146.831
116.020 53.872 -160.803
122.660 52.978 -175.250
129.690 52.092 169.729
137.120 51.219 154.099
144.970 50.359 137.802
153.280 49.512 120.738
162.060 48.679 102.866
171.340 47.860 84.104
181.160 47.053 64.350
191.540 46.258 43.542
202.510 45.472 21.599
214.110 44.690 -1.576
226.380 43.910 -26.073
239.350 43.126 -51.957
253.060 42.332 -79.300
267.560 41.522 -108.182
282.890 40.692 -138.647
299.090 39.838 -170.725
316.230 38.958 155.510
334.340 38.055 120.076
353.500 37.135 82.891
373.750 36.214 43.938
395.160 35.311 3.100
417.800 34.450 -39.808
441.730 33.649 -85.046
467.040 32.917 -133.011
493.800 32.239 175.914
522.090 31.576 121.406
552.000 30.877 63.310
583.620 30.102 1.699
617.050 29.244 -63.228
652.400 28.342 -131.355
689.780 27.461 157.141
729.290 26.647 81.766
771.080 25.899 1.820
815.250 25.172 -83.144
861.950 24.415 -173.414
911.330 23.594 90.887
963.540 22.697 -10.328
1018.740 21.720 -117.266
1077.110 20.631 129.821
1138.810 19.385 11.139
1204.050 18.032 -112.599
1273.030 16.818 118.577
1345.960 15.937 -17.015
1423.070 15.358 -161.295
1504.590 15.001 44.297
1590.790 14.637 -121.968
1681.920 13.874 60.458
1778.280 12.682 -126.357
1880.150 11.269 38.436
1987.870 9.918 -165.349
2101.750 8.926 -19.878
2222.150 8.168 111.721
2349.460 7.329 -131.205
2484.060 6.392 -28.140
2626.360 5.458 59.949
2776.820 4.402 131.481
2935.900 3.092 -173.446
3104.100 1.466 -135.179
3281.930 -0.411 -111.430
3469.940 -1.539 -103.605
3668.730 -2.315 -122.124
3878.910 -3.914 -163.616
4101.130 -5.709 137.506
4336.070 -6.876 54.530
4584.480 -8.148 -55.523
4847.120 -9.393 167.619
5124.810 -10.905 1.505
5418.400 -12.461 168.872
5728.810 -13.561 -57.680
6057.010 -14.857 42.983
6404.000 -15.908 107.892
6770.880 -17.247 133.389
7158.770 -18.507 120.179
7568.890 -19.858 64.428
8002.500 -21.300 -35.290
8460.950 -22.708 178.015
8945.670 -24.191 -18.047
9458.160 -25.662 93.807
10000.000 -27.098 149.820
