# Freq(Hz) SPL(dB) Phase (degrees)
10.000 52.618 -72.585
10.570 53.505 -76.591
11.180 54.397 -80.860
11.820 55.274 -85.322
12.500 56.148 -90.043
13.210 57.004 -94.953
13.970 57.862 -100.189
14.770 58.707 -105.683
15.620 59.548 -111.503
16.510 60.372 -117.584
17.460 61.194 -124.067
18.460 62.001 -130.893
19.510 62.792 -138.071
20.630 63.577 -145.753
21.810 64.344 -153.891
23.060 65.093 -162.579
24.380 65.817 -171.844
25.780 66.511 178.210
27.260 67.161 167.554
28.820 67.749 156.170
30.470 68.258 143.988
32.220 68.665 130.979
34.060 68.940 117.322
36.010 69.062 103.041
38.080 69.013 88.305
40.260 68.789 73.460
42.560 68.401 58.699
45.000 67.865 44.117
47.580 67.210 29.869
50.310 66.461 15.985
53.190 65.645 2.489
56.230 64.781 -10.681
59.460 63.878 -23.676
62.860 62.956 -36.452
66.460 62.016 -49.161
70.270 61.065 -61.869
74.300 60.107 -74.637
78.550 59.146 -87.491
83.050 58.180 -100.544
87.810 57.212 -113.838
92.840 56.244 -127.413
98.160 55.274 -141.335
103.780 54.306 -155.636
109.730 53.336 -170.400
116.020 52.367 174.344
122.660 51.402 158.566
129.690 50.437 142.168
137.120 49.475 125.121
144.970 48.517 107.375
153.280 47.561 88.835
162.060 46.611 69.471
171.340 45.665 49.210
181.160 44.724 27.955
191.540 43.789 5.656
202.510 42.859 -17.764
214.110 41.933 -42.400
226.380 41.011 -68.347
239.350 40.090 -95.675
253.060 39.170 -124.475
267.560 38.247 -154.855
282.890 37.320 173.104
299.090 36.386 139.326
316.230 35.442 103.676
334.340 34.486 66.113
353.500 33.515 26.498
373.750 32.530 -15.214
395.160 31.532 -59.117
417.800 30.525 -105.297
441.730 29.522 -153.823
467.040 28.542 155.139
493.800 27.610 101.386
522.090 26.747 44.570
552.000 25.958 -15.786
583.620 25.218 -80.187
617.050 24.468 -149.050
652.400 23.632 137.427
689.780 22.633 59.373
729.290 21.435 -22.723
771.080 20.071 -108.305
815.250 18.680 163.078
861.950 17.473 70.974
911.330 16.612 -26.322
963.540 16.027 -131.167
1018.740 15.407 115.028
1077.110 14.385 -7.333
1138.810 12.756 -135.885
1204.050 10.689 92.484
1273.030 8.981 -41.727
1345.960 8.015 176.033
1423.070 7.222 22.084
1504.590 6.177 -142.025
1590.790 5.014 45.179
1681.920 3.914 -137.524
1778.280 2.702 28.702
1880.150 1.370 -175.001
1987.870 0.206 -29.784
2101.750 -0.891 102.617
2222.150 -1.795 -138.919
2349.460 -2.958 -38.471
2484.060 -5.271 49.615
2626.360 -6.920 132.069
2776.820 -7.589 -170.098
2935.900 -9.562 -128.705
3104.100 -10.742 -100.684
3281.930 -12.173 -97.546
3469.940 -13.017 -114.600
3668.730 -14.943 -155.919
3878.910 -17.053 143.908
4101.130 -18.780 58.763
4336.070 -21.348 -47.968
4584.480 -23.588 177.339
4847.120 -25.014 15.610
5124.810 -27.067 -177.597
5418.400 -29.498 -43.404
5728.810 -32.101 55.907
6057.010 -35.017 124.814
6404.000 -38.066 151.200
6770.880 -41.590 144.634
7158.770 -46.309 91.558
7568.890 -51.557 1.648
8002.500 -57.795 -113.813
8460.950 -65.356 110.226
8945.670 -61.111 -78.800
9458.160 -58.244 -10.466
10000.000 -58.318 -9.082
