# Freq(Hz) SPL(dB) Phase (degrees)
10.000 51.092 -76.448
10.570 51.979 -80.674
11.180 52.871 -85.179
11.820 53.749 -89.888
12.500 54.623 -94.872
13.210 55.479 -100.057
13.970 56.338 -105.587
14.770 57.184 -111.390
15.620 58.026 -117.539
16.510 58.850 -123.964
17.460 59.672 -130.816
18.460 60.481 -138.028
19.510 61.272 -145.613
20.630 62.058 -153.730
21.810 62.826 -162.325
23.060 63.577 -171.497
24.380 64.302 178.725
25.780 64.997 168.236
27.260 65.648 157.005
28.820 66.238 145.013
30.470 66.750 132.189
32.220 67.158 118.499
34.060 67.436 104.124
36.010 67.560 89.082
38.080 67.514 73.537
40.260 67.294 57.839
42.560 66.909 42.177
45.000 66.377 26.636
47.580 65.726 11.374
50.310 64.982 -3.586
53.190 64.171 -18.220
56.230 63.313 -32.593
59.460 62.416 -46.870
62.860 61.500 -60.999
66.460 60.568 -75.145
70.270 59.624 -89.379
74.300 58.673 -103.767
78.550 57.720 -118.336
83.050 56.762 -133.210
87.810 55.803 -148.439
92.840 54.842 -164.069
98.160 53.881 179.828
103.780 52.920 163.212
109.730 51.957 145.986
116.020 50.994 128.117
122.660 50.032 109.569
129.690 49.069 90.227
137.120 48.105 70.060
144.970 47.142 49.008
153.280 46.177 26.962
162.060 45.212 3.891
171.340 44.246 -20.287
181.160 43.277 -45.679
191.540 42.307 -72.341
202.510 41.335 -100.352
214.110 40.359 -129.816
226.380 39.377 -160.838
239.350 38.390 166.508
253.060 37.395 132.122
267.560 36.391 95.883
282.890 35.377 57.698
299.090 34.351 17.475
316.230 33.312 -24.948
334.340 32.261 -69.638
353.500 31.195 -116.784
373.750 30.117 -166.483
395.160 29.025 141.084
417.800 27.917 85.729
441.730 26.789 27.284
467.040 25.628 -34.484
493.800 24.420 -99.723
522.090 23.143 -168.530
552.000 21.784 119.081
583.620 20.345 43.198
617.050 18.860 -36.111
652.400 17.395 -118.961
689.780 16.023 154.244
729.290 14.792 62.852
771.080 13.708 -33.969
815.250 12.745 -136.846
861.950 11.868 113.597
911.330 11.034 -3.222
963.540 10.186 -127.876
1018.740 9.237 99.096
1077.110 8.045 -42.657
1138.810 6.432 167.355
1204.050 4.328 10.311
1273.030 1.796 -151.631
1345.960 -0.725 43.544
1423.070 -2.321 -125.202
1504.590 -2.533 53.921
1590.790 -2.232 -144.833
1681.920 -2.128 -0.402
1778.280 -2.423 128.688
1880.150 -3.245 -116.654
1987.870 -4.603 -15.177
2101.750 -6.345 74.766
2222.150 -7.937 153.024
2349.460 -9.075 -143.951
2484.060 -9.769 -99.031
2626.360 -10.157 -76.332
2776.820 -10.917 -78.067
2935.900 -12.640 -102.144
3104.100 -15.350 -144.594
3281.930 -18.402 159.063
3469.940 -20.056 83.890
3668.730 -21.139 -27.601
3878.910 -24.043 -169.773
4101.130 -28.534 31.842
4336.070 -30.350 -135.807
4584.480 -29.774 2.118
4847.120 -31.512 98.517
5124.810 -33.895 169.339
5418.400 -34.945 -160.765
5728.810 -37.206 176.426
6057.010 -40.863 116.427
6404.000 -46.150 30.417
6770.880 -52.321 -106.023
7158.770 -57.272 90.667
7568.890 -58.065 -134.956
8002.500 -66.472 -58.688
8460.950 -69.878 -13.342
8945.670 -70.097 -39.784
9458.160 -69.046 -121.011
10000.000 -70.333 31.773
