# Freq(Hz) SPL(dB) Phase (degrees)
10.000 50.894 -77.000
10.570 51.782 -81.258
11.180 52.674 -85.797
11.820 53.552 -90.541
12.500 54.426 -95.563
13.210 55.282 -100.787
13.970 56.141 -106.359
14.770 56.988 -112.206
15.620 57.829 -118.402
16.510 58.654 -124.877
17.460 59.476 -131.781
18.460 60.285 -139.049
19.510 61.077 -146.692
20.630 61.863 -154.870
21.810 62.631 -163.531
23.060 63.382 -172.772
24.380 64.108 177.377
25.780 64.804 166.810
27.260 65.455 155.497
28.820 66.046 143.419
30.470 66.558 130.504
32.220 66.968 116.716
34.060 67.246 102.239
36.010 67.372 87.089
38.080 67.327 71.429
40.260 67.108 55.610
42.560 66.724 39.820
45.000 66.194 24.144
47.580 65.545 8.738
50.310 64.803 -6.375
53.190 63.994 -21.169
56.230 63.138 -35.711
59.460 62.244 -50.169
62.860 61.331 -64.488
66.460 60.402 -78.836
70.270 59.462 -93.284
74.300 58.515 -107.898
78.550 57.567 -122.706
83.050 56.615 -137.835
87.810 55.661 -153.333
92.840 54.707 -169.248
98.160 53.753 174.347
103.780 52.800 157.410
109.730 51.846 139.844
116.020 50.893 121.614
122.660 49.942 102.685
129.690 48.991 82.937
137.120 48.042 62.338
144.970 47.094 40.830
153.280 46.146 18.297
162.060 45.200 -5.290
171.340 44.256 -30.017
181.160 43.312 -55.994
191.540 42.369 -83.277
202.510 41.427 -111.951
214.110 40.486 -142.124
226.380 39.543 -173.903
239.350 38.599 152.632
253.060 37.654 117.376
267.560 36.706 80.200
282.890 35.754 41.001
299.090 34.798 -0.319
316.230 33.838 -43.938
334.340 32.874 -89.930
353.500 31.906 -138.501
373.750 30.936 170.240
395.160 29.964 116.099
417.800 28.992 58.869
441.730 28.016 -1.643
467.040 27.033 -65.716
493.800 26.032 -133.577
522.090 24.998 154.540
552.000 23.914 78.416
583.620 22.759 -2.116
617.050 21.520 -87.211
652.400 20.187 -177.042
689.780 18.752 88.215
729.290 17.210 -11.593
771.080 15.548 -116.729
815.250 13.756 132.701
861.950 11.821 16.530
911.330 9.735 -105.299
963.540 7.506 127.228
1018.740 5.156 -5.815
1077.110 2.737 -144.274
1138.810 0.389 72.336
1204.050 -1.602 -76.030
1273.030 -2.755 128.148
1345.960 -3.083 -40.152
1423.070 -3.162 136.097
1504.590 -3.478 -62.752
1590.790 -4.262 84.965
1681.920 -5.465 -139.501
1778.280 -6.973 -16.551
1880.150 -8.820 93.207
1987.870 -11.140 -170.116
2101.750 -13.917 -85.202
2222.150 -17.123 -11.162
2349.460 -20.316 58.299
2484.060 -20.394 119.298
2626.360 -18.513 142.833
2776.820 -17.488 135.100
2935.900 -17.072 101.156
3104.100 -17.440 41.635
3281.930 -18.594 -45.523
3469.940 -20.661 -160.642
3668.730 -24.246 54.724
3878.910 -29.457 -119.503
4101.130 -36.155 23.691
4336.070 -44.007 102.700
4584.480 -45.523 156.228
4847.120 -51.658 -119.302
5124.810 -50.163 -11.808
5418.400 -42.909 -10.682
5728.810 -43.824 -65.687
6057.010 -44.588 -162.728
6404.000 -52.099 55.738
6770.880 -59.450 -140.701
7158.770 -57.867 143.326
7568.890 -61.212 -156.970
8002.500 -70.319 -154.935
8460.950 -76.593 -31.226
8945.670 -69.094 161.200
9458.160 -64.649 94.970
10000.000 -72.014 -118.870
