# Freq(Hz) SPL(dB) Phase (degrees)
10.000 53.145 -71.405
10.570 54.033 -75.344
11.180 54.924 -79.541
11.820 55.802 -83.927
12.500 56.676 -88.568
13.210 57.532 -93.394
13.970 58.391 -98.541
14.770 59.237 -103.939
15.620 60.078 -109.659
16.510 60.903 -115.635
17.460 61.725 -122.006
18.460 62.533 -128.713
19.510 63.325 -135.766
20.630 64.110 -143.316
21.810 64.878 -151.315
23.060 65.628 -159.854
24.380 66.353 -168.962
25.780 67.048 -178.742
27.260 67.699 170.778
28.820 68.289 159.579
30.470 68.800 147.594
32.220 69.209 134.794
34.060 69.486 121.356
36.010 69.610 107.308
38.080 69.564 92.820
40.260 69.343 78.236
42.560 68.959 63.752
45.000 68.427 49.463
47.580 67.776 35.526
50.310 67.033 21.971
53.190 66.223 8.823
56.230 65.365 -3.977
59.460 64.471 -16.580
62.860 63.557 -28.942
66.460 62.628 -41.211
70.270 61.688 -53.453
74.300 60.742 -65.727
78.550 59.796 -78.060
83.050 58.848 -90.558
87.810 57.901 -103.266
92.840 56.955 -116.222
98.160 56.012 -129.489
103.780 55.074 -143.101
109.730 54.140 -157.139
116.020 53.212 -171.632
122.660 52.294 173.388
129.690 51.382 157.823
137.120 50.482 141.641
144.970 49.594 124.787
153.280 48.718 107.163
162.060 47.857 88.731
171.340 47.012 69.410
181.160 46.182 49.096
191.540 45.368 27.725
202.510 44.570 5.211
214.110 43.786 -18.553
226.380 43.012 -43.670
239.350 42.246 -70.219
253.060 41.483 -98.292
267.560 40.717 -127.994
282.890 39.944 -159.394
299.090 39.157 167.451
316.230 38.353 132.442
334.340 37.530 95.573
353.500 36.688 56.753
373.750 35.834 15.978
395.160 34.983 -26.829
417.800 34.153 -71.775
441.730 33.372 -119.020
467.040 32.666 -168.889
493.800 32.048 138.213
522.090 31.510 81.796
552.000 31.011 21.408
583.620 30.490 -43.225
617.050 29.886 -112.162
652.400 29.156 174.701
689.780 28.287 97.572
729.290 27.300 16.691
771.080 26.256 -67.926
815.250 25.236 -156.477
861.950 24.299 110.355
911.330 23.442 11.772
963.540 22.614 -92.743
1018.740 21.782 156.601
1077.110 20.949 39.563
1138.810 20.127 -84.273
1204.050 19.308 144.550
1273.030 18.456 5.494
1345.960 17.522 -141.739
1423.070 16.497 62.815
1504.590 15.442 -101.326
1590.790 14.293 84.789
1681.920 12.915 -98.570
1778.280 11.382 69.270
1880.150 9.871 -131.868
1987.870 8.555 17.186
2101.750 7.651 154.696
2222.150 7.104 -82.689
2349.460 6.572 24.003
2484.060 6.011 114.204
2626.360 5.147 -173.052
2776.820 3.851 -116.837
2935.900 2.103 -76.894
3104.100 0.115 -51.647
3281.930 -1.821 -43.483
3469.940 -3.610 -52.419
3668.730 -5.024 -82.652
3878.910 -6.146 -134.908
4101.130 -7.033 147.727
4336.070 -7.746 42.738
4584.480 -8.693 -91.486
4847.120 -10.080 105.767
5124.810 -11.836 -83.628
5418.400 -13.127 57.385
5728.810 -14.182 162.659
6057.010 -15.699 -128.937
6404.000 -17.325 -95.189
6770.880 -18.696 -100.099
7158.770 -20.271 -148.354
7568.890 -21.944 120.847
8002.500 -23.538 -16.628
8460.950 -25.182 156.923
8945.670 -26.845 -81.169
9458.160 -28.628 -13.624
10000.000 -30.560 -5.151
