# Freq(Hz) SPL(dB) Phase (degrees)
10.000 51.573 -75.151
10.570 52.461 -79.303
11.180 53.352 -83.729
11.820 54.229 -88.355
12.500 55.104 -93.251
13.210 55.959 -98.343
13.970 56.817 -103.775
14.770 57.663 -109.473
15.620 58.504 -115.512
16.510 59.328 -121.822
17.460 60.149 -128.549
18.460 60.957 -135.632
19.510 61.748 -143.080
20.630 62.533 -151.051
21.810 63.300 -159.493
23.060 64.049 -168.502
24.380 64.773 -178.107
25.780 65.466 171.586
27.260 66.116 160.549
28.820 66.704 148.762
30.470 67.213 136.154
32.220 67.620 122.693
34.060 67.895 108.559
36.010 68.016 93.774
38.080 67.967 78.501
40.260 67.743 63.091
42.560 67.354 47.733
45.000 66.818 32.516
47.580 66.162 17.596
50.310 65.412 3.000
53.190 64.595 -11.248
56.230 63.730 -25.213
59.460 62.825 -39.055
62.860 61.901 -52.724
66.460 60.959 -66.381
70.270 60.004 -80.094
74.300 59.041 -93.927
78.550 58.075 -107.907
83.050 57.104 -122.154
87.810 56.128 -136.713
92.840 55.150 -151.628
98.160 54.169 -166.968
103.780 53.186 177.231
109.730 52.200 160.880
116.020 51.211 143.947
122.660 50.220 126.404
129.690 49.226 108.144
137.120 48.229 89.140
144.970 47.229 69.343
153.280 46.225 48.655
162.060 45.219 27.053
171.340 44.210 4.467
181.160 43.197 -19.195
191.540 42.182 -43.974
202.510 41.166 -69.935
214.110 40.148 -97.167
226.380 39.131 -125.755
239.350 38.115 -155.761
253.060 37.105 172.727
267.560 36.103 139.597
282.890 35.112 104.755
299.090 34.137 68.101
316.230 33.181 29.458
334.340 32.250 -11.269
353.500 31.345 -54.297
373.750 30.468 -99.762
395.160 29.619 -147.866
417.800 28.795 161.187
441.730 27.991 107.229
467.040 27.204 50.036
493.800 26.429 -10.566
522.090 25.663 -74.777
552.000 24.906 -142.839
583.620 24.147 144.980
617.050 23.368 68.406
652.400 22.540 -12.771
689.780 21.638 -98.603
729.290 20.660 171.001
771.080 19.644 75.970
815.250 18.644 -23.901
861.950 17.699 -129.147
911.330 16.818 119.680
963.540 16.012 2.085
1018.740 15.294 -122.580
1077.110 14.638 104.762
1138.810 13.934 -36.465
1204.050 13.101 173.606
1273.030 12.118 15.226
1345.960 11.024 -151.840
1423.070 9.830 32.019
1504.590 8.541 -153.439
1590.790 7.227 11.667
1681.920 6.039 166.471
1778.280 4.997 -50.784
1880.150 4.001 78.613
1987.870 2.886 -166.144
2101.750 1.562 -64.603
2222.150 0.118 23.355
2349.460 -1.242 97.025
2484.060 -2.473 153.792
2626.360 -3.842 -167.158
2776.820 -5.315 -145.095
2935.900 -6.528 -140.639
3104.100 -7.088 -158.103
3281.930 -8.228 159.207
3469.940 -9.547 93.433
3668.730 -10.840 4.606
3878.910 -12.136 -111.207
4101.130 -13.743 105.076
4336.070 -15.577 -65.955
4584.480 -17.405 92.453
4847.120 -19.596 -140.752
5124.810 -21.863 -45.703
5418.400 -24.206 13.772
5728.810 -26.481 37.184
6057.010 -28.622 18.217
6404.000 -31.137 -44.304
6770.880 -34.095 -151.993
7158.770 -37.799 51.475
7568.890 -42.721 -153.972
8002.500 -49.828 -55.774
8460.950 -67.043 -10.303
8945.670 -56.631 169.688
9458.160 -51.791 93.182
10000.000 -50.146 -51.900
