# Freq(Hz) SPL(dB) Phase (degrees)
10.000 51.623 -75.024
10.570 52.510 -79.169
11.180 53.402 -83.588
11.820 54.279 -88.205
12.500 55.153 -93.092
13.210 56.009 -98.176
13.970 56.867 -103.598
14.770 57.713 -109.287
15.620 58.554 -115.314
16.510 59.378 -121.613
17.460 60.200 -128.329
18.460 61.008 -135.399
19.510 61.799 -142.834
20.630 62.584 -150.790
21.810 63.351 -159.218
23.060 64.101 -168.211
24.380 64.825 -177.800
25.780 65.519 171.911
27.260 66.169 160.891
28.820 66.758 149.123
30.470 67.267 136.536
32.220 67.675 123.096
34.060 67.950 108.985
36.010 68.073 94.223
38.080 68.024 78.976
40.260 67.801 63.591
42.560 67.413 48.261
45.000 66.879 33.073
47.580 66.224 18.183
50.310 65.476 3.619
53.190 64.660 -10.597
56.230 63.797 -24.528
59.460 62.895 -38.334
62.860 61.973 -51.966
66.460 61.034 -65.584
70.270 60.082 -79.258
74.300 59.123 -93.051
78.550 58.161 -106.990
83.050 57.193 -121.196
87.810 56.223 -135.713
92.840 55.250 -150.587
98.160 54.275 -165.887
103.780 53.300 178.350
109.730 52.321 162.034
116.020 51.340 145.133
122.660 50.359 127.615
129.690 49.375 109.372
137.120 48.389 90.375
144.970 47.401 70.572
153.280 46.410 49.860
162.060 45.416 28.213
171.340 44.420 5.556
181.160 43.420 -18.208
191.540 42.416 -43.128
202.510 41.408 -69.273
214.110 40.394 -96.738
226.380 39.374 -125.612
239.350 38.348 -155.961
253.060 37.315 172.131
267.560 36.273 138.559
282.890 35.225 103.241
299.090 34.170 66.098
316.230 33.111 26.981
334.340 32.050 -14.177
353.500 30.990 -57.563
373.750 29.933 -103.282
395.160 28.880 -151.521
417.800 27.827 157.538
441.730 26.771 103.747
467.040 25.702 46.924
493.800 24.620 -13.033
522.090 23.529 -76.235
552.000 22.446 -142.874
583.620 21.386 146.725
617.050 20.340 72.107
652.400 19.259 -7.124
689.780 18.072 -91.033
729.290 16.735 -179.241
771.080 15.279 88.805
815.250 13.861 -6.377
861.950 12.743 -105.413
911.330 12.091 149.472
963.540 11.778 35.691
1018.740 11.475 -88.037
1077.110 10.853 138.514
1138.810 9.643 -3.220
1204.050 7.926 -150.258
1273.030 6.049 59.492
1345.960 4.875 -95.249
1423.070 4.658 98.435
1504.590 4.594 -83.814
1590.790 3.925 79.629
1681.920 2.502 -127.124
1778.280 0.742 18.656
1880.150 -0.626 156.076
1987.870 -1.327 -80.743
2101.750 -2.000 24.330
2222.150 -3.263 112.920
2349.460 -5.100 -171.789
2484.060 -6.830 -108.209
2626.360 -7.922 -62.973
2776.820 -9.487 -40.415
2935.900 -11.861 -31.972
3104.100 -13.302 -40.416
3281.930 -15.058 -77.843
3469.940 -17.705 -128.784
3668.730 -18.753 155.430
3878.910 -21.228 50.303
4101.130 -22.657 -74.127
4336.070 -23.952 123.333
4584.480 -26.399 -63.376
4847.120 -28.089 74.588
5124.810 -31.031 -179.801
5418.400 -33.848 -110.142
5728.810 -37.742 -71.847
6057.010 -41.464 -73.547
6404.000 -45.661 -108.734
6770.880 -50.284 -178.474
7158.770 -53.835 40.358
7568.890 -59.797 -119.424
8002.500 -69.117 31.397
8460.950 -68.254 176.444
8945.670 -65.514 -116.662
9458.160 -66.311 -171.789
10000.000 -63.694 104.948
