# Freq(Hz) SPL(dB) Phase (degrees)
10.000 50.958 -76.818
10.570 51.846 -81.066
11.180 52.738 -85.594
11.820 53.615 -90.326
12.500 54.490 -95.336
13.210 55.346 -100.547
13.970 56.204 -106.105
14.770 57.050 -111.937
15.620 57.892 -118.118
16.510 58.716 -124.576
17.460 59.539 -131.463
18.460 60.347 -138.713
19.510 61.139 -146.337
20.630 61.924 -154.495
21.810 62.692 -163.134
23.060 63.443 -172.353
24.380 64.168 177.821
25.780 64.863 167.280
27.260 65.514 155.994
28.820 66.104 143.945
30.470 66.615 131.060
32.220 67.024 117.304
34.060 67.301 102.861
36.010 67.426 87.747
38.080 67.380 72.125
40.260 67.159 56.346
42.560 66.774 40.599
45.000 66.242 24.968
47.580 65.591 9.610
50.310 64.847 -5.451
53.190 64.035 -20.191
56.230 63.177 -34.676
59.460 62.280 -49.073
62.860 61.364 -63.327
66.460 60.430 -77.606
70.270 59.486 -91.980
74.300 58.534 -106.516
78.550 57.581 -121.241
83.050 56.623 -136.281
87.810 55.662 -151.684
92.840 54.701 -167.497
98.160 53.739 176.206
103.780 52.776 159.386
109.730 51.812 141.945
116.020 50.847 123.850
122.660 49.883 105.065
129.690 48.917 85.474
137.120 47.951 65.046
144.970 46.985 43.722
153.280 46.017 21.391
162.060 45.048 -1.976
171.340 44.078 -26.461
181.160 43.106 -52.171
191.540 42.131 -79.160
202.510 41.154 -107.506
214.110 40.174 -137.314
226.380 39.189 -168.685
239.350 38.200 158.306
253.060 37.205 123.561
267.560 36.203 86.958
282.890 35.194 48.404
299.090 34.177 7.805
316.230 33.152 -35.003
334.340 32.120 -80.088
353.500 31.080 -127.642
373.750 30.034 -177.758
395.160 28.982 129.390
417.800 27.924 73.625
441.730 26.860 14.793
467.040 25.786 -47.328
493.800 24.698 -112.897
522.090 23.593 177.927
552.000 22.467 104.992
583.620 21.328 28.157
617.050 20.189 -52.763
652.400 19.068 -138.049
689.780 17.979 131.945
729.290 16.922 36.876
771.080 15.891 -63.645
815.250 14.887 -169.841
861.950 13.923 77.914
911.330 13.010 -40.811
963.540 12.164 -166.483
1018.740 11.403 60.260
1077.110 10.710 -81.507
1138.810 9.994 127.274
1204.050 9.151 -32.827
1273.030 8.179 157.577
1345.960 7.131 -21.553
1423.070 6.051 148.950
1504.590 4.895 -51.952
1590.790 3.526 95.040
1681.920 1.884 -129.763
1778.280 0.001 -6.697
1880.150 -2.165 103.916
1987.870 -4.648 -157.871
2101.750 -7.393 -71.303
2222.150 -10.141 5.046
2349.460 -11.996 70.086
2484.060 -12.630 114.471
2626.360 -13.054 134.342
2776.820 -13.647 129.762
2935.900 -14.991 101.133
3104.100 -16.780 50.336
3281.930 -19.469 -19.151
3469.940 -22.323 -109.492
3668.730 -24.688 138.191
3878.910 -26.438 -2.050
4101.130 -28.055 -173.296
4336.070 -30.215 -17.641
4584.480 -32.765 108.424
4847.120 -34.811 -156.451
5124.810 -35.842 -100.910
5418.400 -37.187 -91.162
5728.810 -40.073 -127.055
6057.010 -44.153 159.684
6404.000 -47.613 36.143
6770.880 -51.991 -120.330
7158.770 -57.409 10.925
7568.890 -61.627 60.824
8002.500 -64.068 23.503
8460.950 -78.126 -36.406
8945.670 -64.602 114.827
9458.160 -78.025 -15.302
10000.000 -69.329 78.008
