# Freq(Hz) SPL(dB) Phase (degrees)
10.000 53.595 -70.453
10.570 54.482 -74.337
11.180 55.374 -78.477
11.820 56.252 -82.802
12.500 57.126 -87.378
13.210 57.982 -92.137
13.970 58.841 -97.211
14.770 59.687 -102.533
15.620 60.528 -108.172
16.510 61.353 -114.063
17.460 62.175 -120.344
18.460 62.984 -126.956
19.510 63.775 -133.910
20.630 64.561 -141.353
21.810 65.329 -149.239
23.060 66.080 -157.659
24.380 66.805 -166.642
25.780 67.500 -176.289
27.260 68.152 173.372
28.820 68.742 162.321
30.470 69.253 150.493
32.220 69.663 137.859
34.060 69.940 124.595
36.010 70.066 110.732
38.080 70.020 96.440
40.260 69.801 82.063
42.560 69.417 67.796
45.000 68.886 53.737
47.580 68.237 40.044
50.310 67.495 26.746
53.190 66.687 13.869
56.230 65.832 1.353
59.460 64.939 -10.948
62.860 64.028 -22.993
66.460 63.102 -34.930
70.270 62.166 -46.820
74.300 61.224 -58.726
78.550 60.283 -70.673
83.050 59.340 -82.767
87.810 58.398 -95.052
92.840 57.458 -107.568
98.160 56.522 -120.377
103.780 55.592 -133.514
109.730 54.666 -147.060
116.020 53.746 -161.047
122.660 52.835 -175.508
129.690 51.932 169.457
137.120 51.037 153.815
144.970 50.154 137.510
153.280 49.279 120.442
162.060 48.415 102.576
171.340 47.561 83.830
181.160 46.714 64.107
191.540 45.874 43.349
202.510 45.038 21.479
214.110 44.202 -1.592
226.380 43.362 -25.952
239.350 42.514 -51.656
253.060 41.652 -78.774
267.560 40.770 -107.380
282.890 39.866 -137.517
299.090 38.935 -169.214
316.230 37.977 157.450
334.340 36.995 122.486
353.500 35.995 85.803
373.750 34.990 47.373
395.160 33.996 7.074
417.800 33.031 -35.268
441.730 32.109 -79.878
467.040 31.236 -127.094
493.800 30.400 -177.226
522.090 29.575 129.454
552.000 28.724 72.780
583.620 27.818 12.734
617.050 26.846 -50.612
652.400 25.824 -117.207
689.780 24.795 172.850
729.290 23.797 99.207
771.080 22.822 21.290
815.250 21.814 -61.058
861.950 20.766 -147.552
911.330 19.804 121.989
963.540 19.115 26.415
1018.740 18.656 -76.629
1077.110 18.075 171.621
1138.810 17.025 52.445
1204.050 15.561 -71.790
1273.030 13.935 159.994
1345.960 12.461 27.375
1423.070 11.508 -111.047
1504.590 11.221 99.723
1590.790 10.762 -63.326
1681.920 9.657 124.279
1778.280 8.488 -55.506
1880.150 7.346 113.993
1987.870 5.929 -86.330
2101.750 4.603 65.172
2222.150 4.087 -154.451
2349.460 3.929 -34.583
2484.060 2.426 68.187
2626.360 0.231 166.191
2776.820 -0.390 -107.426
2935.900 -0.922 -46.997
3104.100 -2.531 -2.057
3281.930 -4.021 27.185
3469.940 -5.534 40.999
3668.730 -6.065 30.630
3878.910 -8.266 -3.737
4101.130 -9.442 -51.014
4336.070 -10.931 -130.681
4584.480 -12.487 128.617
4847.120 -14.320 2.060
5124.810 -15.879 -155.065
5418.400 -17.785 20.860
5728.810 -19.932 164.822
6057.010 -21.937 -86.373
6404.000 -24.242 -8.053
6770.880 -26.816 29.925
7158.770 -29.665 31.597
7568.890 -33.159 -11.240
8002.500 -36.862 -98.154
8460.950 -41.736 130.707
8945.670 -49.596 -53.546
9458.160 -60.927 29.111
10000.000 -53.933 4.020
