# Freq(Hz) SPL(dB) Phase (degrees)
10.000 51.792 -74.586
10.570 52.680 -78.706
11.180 53.571 -83.097
11.820 54.449 -87.687
12.500 55.323 -92.544
13.210 56.178 -97.597
13.970 57.036 -102.985
14.770 57.882 -108.639
15.620 58.723 -114.629
16.510 59.546 -120.888
17.460 60.368 -127.562
18.460 61.176 -134.588
19.510 61.966 -141.977
20.630 62.751 -149.884
21.810 63.518 -158.259
23.060 64.267 -167.197
24.380 64.991 -176.728
25.780 65.684 173.046
27.260 66.334 162.092
28.820 66.922 150.394
30.470 67.431 137.880
32.220 67.837 124.519
34.060 68.111 110.491
36.010 68.233 95.817
38.080 68.183 80.663
40.260 67.959 65.378
42.560 67.569 50.153
45.000 67.033 35.076
47.580 66.376 20.306
50.310 65.626 5.868
53.190 64.809 -8.213
56.230 63.943 -22.001
59.460 63.038 -35.654
62.860 62.113 -49.123
66.460 61.170 -62.567
70.270 60.215 -76.054
74.300 59.251 -89.647
78.550 58.284 -103.372
83.050 57.312 -117.347
87.810 56.336 -131.618
92.840 55.357 -146.225
98.160 54.376 -161.236
103.780 53.393 -176.687
109.730 52.407 167.335
116.020 51.419 150.801
122.660 50.430 133.683
129.690 49.438 115.877
137.120 48.444 97.359
144.970 47.449 78.080
153.280 46.451 57.945
162.060 45.454 36.933
171.340 44.456 14.976
181.160 43.459 -8.018
191.540 42.463 -32.089
202.510 41.471 -57.305
214.110 40.484 -83.755
226.380 39.505 -111.530
239.350 38.536 -140.700
253.060 37.580 -171.364
267.560 36.641 156.354
282.890 35.722 122.344
299.090 34.826 86.490
316.230 33.953 48.601
334.340 33.106 8.572
353.500 32.281 -33.816
373.750 31.475 -78.689
395.160 30.685 -126.231
417.800 29.902 -176.614
441.730 29.120 130.031
467.040 28.334 73.523
493.800 27.540 13.739
522.090 26.738 -49.472
552.000 25.930 -116.301
583.620 25.114 173.043
617.050 24.281 98.349
652.400 23.422 19.460
689.780 22.541 -63.693
729.290 21.670 -151.169
771.080 20.862 116.642
815.250 20.151 19.181
861.950 19.527 -84.286
911.330 18.950 165.686
963.540 18.387 48.686
1018.740 17.803 -75.762
1077.110 17.126 151.868
1138.810 16.273 11.724
1204.050 15.212 -135.951
1273.030 14.078 69.160
1345.960 12.967 -93.635
1423.070 11.939 94.761
1504.590 11.015 -86.798
1590.790 10.117 80.475
1681.920 9.121 -123.812
1778.280 7.990 20.311
1880.150 6.762 152.778
1987.870 5.524 -87.051
2101.750 4.334 19.644
2222.150 3.121 111.574
2349.460 1.795 -171.667
2484.060 0.398 -110.091
2626.360 -0.908 -64.617
2776.820 -2.058 -37.236
2935.900 -3.213 -29.796
3104.100 -4.394 -42.445
3281.930 -5.313 -75.934
3469.940 -6.336 -134.586
3668.730 -7.615 142.449
3878.910 -8.993 34.900
4101.130 -10.359 -100.342
4336.070 -12.076 95.917
4584.480 -13.975 -96.849
4847.120 -16.072 39.100
5124.810 -18.255 143.349
5418.400 -20.576 -147.147
5728.810 -22.820 -113.688
6057.010 -25.208 -120.651
6404.000 -27.599 -170.494
6770.880 -30.492 95.218
7158.770 -33.944 -46.414
7568.890 -38.591 122.281
8002.500 -44.396 -119.946
8460.950 -54.681 -61.611
8945.670 -62.093 157.130
9458.160 -51.206 86.730
10000.000 -48.815 -39.283
