# Freq(Hz) SPL(dB) Phase (degrees)
10.000 52.030 -73.991
10.570 52.917 -78.077
11.180 53.808 -82.432
11.820 54.686 -86.984
12.500 55.560 -91.800
13.210 56.415 -96.810
13.970 57.273 -102.154
14.770 58.119 -107.759
15.620 58.960 -113.699
16.510 59.784 -119.905
17.460 60.605 -126.523
18.460 61.413 -133.489
19.510 62.203 -140.815
20.630 62.988 -148.655
21.810 63.755 -156.959
23.060 64.504 -165.823
24.380 65.228 -175.274
25.780 65.921 174.583
27.260 66.571 163.718
28.820 67.159 152.114
30.470 67.668 139.699
32.220 68.074 126.443
34.060 68.348 112.526
36.010 68.470 97.969
38.080 68.420 82.940
40.260 68.196 67.787
42.560 67.806 52.701
45.000 67.270 37.773
47.580 66.614 23.160
50.310 65.863 8.889
53.190 65.046 -5.016
56.230 64.180 -18.617
59.460 63.276 -32.071
62.860 62.351 -45.330
66.460 61.409 -58.550
70.270 60.454 -71.799
74.300 59.491 -85.140
78.550 58.526 -98.597
83.050 57.554 -112.288
87.810 56.580 -126.254
92.840 55.603 -140.539
98.160 54.625 -155.207
103.780 53.645 -170.294
109.730 52.663 174.117
116.020 51.680 157.998
122.660 50.697 141.319
129.690 49.713 123.981
137.120 48.729 105.960
144.970 47.747 87.207
153.280 46.764 67.630
162.060 45.785 47.206
171.340 44.810 25.867
181.160 43.839 3.522
191.540 42.876 -19.877
202.510 41.922 -44.400
214.110 40.980 -70.143
226.380 40.051 -97.205
239.350 39.140 -125.667
253.060 38.247 -155.637
267.560 37.375 172.748
282.890 36.525 139.370
299.090 35.697 104.108
316.230 34.888 66.775
334.340 34.095 27.274
353.500 33.313 -14.592
373.750 32.537 -58.924
395.160 31.759 -105.869
417.800 30.972 -155.558
441.730 30.173 151.923
467.040 29.358 96.439
493.800 28.532 37.907
522.090 27.705 -23.795
552.000 26.890 -88.848
583.620 26.100 -157.483
617.050 25.342 130.023
652.400 24.623 53.385
689.780 23.952 -27.685
729.290 23.344 -113.528
771.080 22.801 155.282
815.250 22.296 58.272
861.950 21.781 -44.982
911.330 21.210 -154.695
963.540 20.561 88.994
1018.740 19.821 -34.120
1077.110 18.963 -164.228
1138.810 18.004 58.803
1204.050 16.969 -85.017
1273.030 16.029 123.558
1345.960 15.183 -36.680
1423.070 14.368 153.266
1504.590 13.480 -27.258
1590.790 12.404 141.686
1681.920 11.167 -59.292
1778.280 9.939 89.352
1880.150 8.802 -133.823
1987.870 7.676 -10.397
2101.750 6.401 99.232
2222.150 4.954 -164.691
2349.460 3.489 -82.344
2484.060 2.096 -15.489
2626.360 0.676 34.963
2776.820 -0.682 68.590
2935.900 -1.857 83.275
3104.100 -3.024 77.147
3281.930 -4.311 50.406
3469.940 -5.473 1.707
3668.730 -6.612 -71.802
3878.910 -7.881 -170.259
4101.130 -9.153 64.025
4336.070 -10.737 -89.785
4584.480 -12.484 87.844
4847.120 -14.346 -124.924
5124.810 -16.312 -10.232
5418.400 -18.471 70.900
5728.810 -20.637 116.079
6057.010 -22.776 122.965
6404.000 -24.875 87.950
6770.880 -27.269 7.947
7158.770 -30.299 -119.264
7568.890 -34.027 67.604
8002.500 -38.948 -157.284
8460.950 -45.166 -71.031
8945.670 -55.409 -15.540
9458.160 -56.018 49.451
10000.000 -52.101 -34.207
